2021-09-12 15:26:14.658438 1841
2021-09-12 15:26:14.664405 1834
2021-09-12 15:26:14.670363 1794
2021-09-12 15:26:14.677374 1808
2021-09-12 15:26:14.683328 1808
2021-09-12 15:26:14.689312 1762
2021-09-12 15:26:14.696292 1671
2021-09-12 15:26:14.702279 1669
2021-09-12 15:26:14.708263 1715
2021-09-12 15:26:14.714247 1751
2021-09-12 15:26:14.721228 1779
2021-09-12 15:26:14.727210 1823
2021-09-12 15:26:14.733193 1987
2021-09-12 15:26:14.739207 2422
2021-09-12 15:26:14.746160 2710
2021-09-12 15:26:14.752378 2271
2021-09-12 15:26:14.758337 2006
2021-09-12 15:26:14.764317 2032
2021-09-12 15:26:14.771297 1920
2021-09-12 15:26:14.777282 1751
2021-09-12 15:26:14.783265 1746
2021-09-12 15:26:14.790246 1776
2021-09-12 15:26:14.796230 1745
2021-09-12 15:26:14.802215 1776
2021-09-12 15:26:14.808205 1881
2021-09-12 15:26:14.815179 1872
2021-09-12 15:26:14.821165 1858
2021-09-12 15:26:14.827152 1936
2021-09-12 15:26:14.834129 1861
2021-09-12 15:26:14.840151 1786
2021-09-12 15:26:14.846097 1857
2021-09-12 15:26:14.852120 1865
2021-09-12 15:26:14.858103 1815
2021-09-12 15:26:14.865085 1872
2021-09-12 15:26:14.871107 1872
2021-09-12 15:26:14.877053 1873
2021-09-12 15:26:14.884035 1904
2021-09-12 15:26:14.890019 1915
2021-09-12 15:26:14.896003 1841
2021-09-12 15:26:14.901990 1795
2021-09-12 15:26:14.908968 1851
2021-09-12 15:26:14.914956 1872
2021-09-12 15:26:14.920973 1826
2021-09-12 15:26:14.926947 1853
2021-09-12 15:26:14.933901 1853
2021-09-12 15:26:14.939889 1833
2021-09-12 15:26:14.945873 1841
2021-09-12 15:26:14.952855 1851
2021-09-12 15:26:14.958837 1890
2021-09-12 15:26:14.964857 1893
2021-09-12 15:26:14.970802 1877
2021-09-12 15:26:14.977789 1925
2021-09-12 15:26:14.983802 1867
2021-09-12 15:26:14.989793 1793
2021-09-12 15:26:14.995736 1842
2021-09-12 15:26:15.002718 1831
2021-09-12 15:26:15.008701 1840
2021-09-12 15:26:15.014714 1843
2021-09-12 15:26:15.020675 1801
2021-09-12 15:26:15.027653 1833
2021-09-12 15:26:15.033638 1815
2021-09-12 15:26:15.039625 1826
2021-09-12 15:26:15.045607 1837
2021-09-12 15:26:15.052586 1826
2021-09-12 15:26:15.058573 1865
2021-09-12 15:26:15.064552 1810
2021-09-12 15:26:15.071533 1793
2021-09-12 15:26:15.077517 1811
2021-09-12 15:26:15.083501 1808
2021-09-12 15:26:15.089488 1792
2021-09-12 15:26:15.096467 1808
2021-09-12 15:26:15.102450 1792
2021-09-12 15:26:15.108435 1805
2021-09-12 15:26:15.114423 1818
2021-09-12 15:26:15.121443 1785
2021-09-12 15:26:15.127384 1754
2021-09-12 15:26:15.133368 1777
2021-09-12 15:26:15.140354 1825
2021-09-12 15:26:15.146334 1791
2021-09-12 15:26:15.152131 1795
2021-09-12 15:26:15.159110 1805
2021-09-12 15:26:15.165093 1811
2021-09-12 15:26:15.171203 1838
2021-09-12 15:26:15.177062 1833
2021-09-12 15:26:15.184042 1824
2021-09-12 15:26:15.190026 1811
2021-09-12 15:26:15.196013 1801
2021-09-12 15:26:15.202996 1769
2021-09-12 15:26:15.208977 1799
2021-09-12 15:26:15.214962 1851
2021-09-12 15:26:15.220978 1872
2021-09-12 15:26:15.227929 1898
2021-09-12 15:26:15.233914 1891
2021-09-12 15:26:15.239891 1917
2021-09-12 15:26:15.246029 1904
2021-09-12 15:26:15.252322 1873
2021-09-12 15:26:15.258301 1830
2021-09-12 15:26:15.264286 1803
2021-09-12 15:26:15.271315 1843
2021-09-12 15:26:15.277257 1827
2021-09-12 15:26:15.283235 1795
2021-09-12 15:26:15.289222 1840
2021-09-12 15:26:15.296200 1846
2021-09-12 15:26:15.302184 1818
2021-09-12 15:26:15.308172 1815
2021-09-12 15:26:15.314156 1795
2021-09-12 15:26:15.321136 1812
2021-09-12 15:26:15.327118 1823
2021-09-12 15:26:15.333117 1805
2021-09-12 15:26:15.340087 1839
2021-09-12 15:26:15.346067 1872
2021-09-12 15:26:15.352051 1780
2021-09-12 15:26:15.358088 1734
2021-09-12 15:26:15.365018 1781
2021-09-12 15:26:15.371034 1812
2021-09-12 15:26:15.376985 1799
2021-09-12 15:26:15.383966 2047
2021-09-12 15:26:15.389950 2611
2021-09-12 15:26:15.395934 2842
2021-09-12 15:26:15.401920 2537
2021-09-12 15:26:15.408900 2256
2021-09-12 15:26:15.414883 2084
2021-09-12 15:26:15.420867 1872
2021-09-12 15:26:15.427848 1822
2021-09-12 15:26:15.433836 1837
2021-09-12 15:26:15.439848 1837
2021-09-12 15:26:15.445801 1808
2021-09-12 15:26:15.451784 1803
2021-09-12 15:26:15.458765 1808
2021-09-12 15:26:15.464750 1827
2021-09-12 15:26:15.470735 1877
2021-09-12 15:26:15.476745 1878
2021-09-12 15:26:15.483700 1853
2021-09-12 15:26:15.489718 1865
2021-09-12 15:26:15.495667 1864
2021-09-12 15:26:15.502688 1840
2021-09-12 15:26:15.508656 1874
2021-09-12 15:26:15.514618 1883
2021-09-12 15:26:15.520602 1860
2021-09-12 15:26:15.527582 1883
2021-09-12 15:26:15.533566 1869
2021-09-12 15:26:15.539550 1872
2021-09-12 15:26:15.545534 1904
2021-09-12 15:26:15.552514 1892
2021-09-12 15:26:15.558505 1895
2021-09-12 15:26:15.564482 1895
2021-09-12 15:26:15.570471 1891
2021-09-12 15:26:15.577453 1861
2021-09-12 15:26:15.583434 1869
2021-09-12 15:26:15.589417 1889
2021-09-12 15:26:15.596396 1856
2021-09-12 15:26:15.602381 1863
2021-09-12 15:26:15.608370 1909
2021-09-12 15:26:15.614353 1921
2021-09-12 15:26:15.621330 1891
2021-09-12 15:26:15.627315 1922
2021-09-12 15:26:15.633299 1936
2021-09-12 15:26:15.639284 1946
2021-09-12 15:26:15.646266 1964
2021-09-12 15:26:15.652249 1940
2021-09-12 15:26:15.658232 1931
2021-09-12 15:26:15.664216 1943
2021-09-12 15:26:15.671196 1968
2021-09-12 15:26:15.677181 1943
2021-09-12 15:26:15.683165 1915
2021-09-12 15:26:15.689149 1937
2021-09-12 15:26:15.696130 1909
2021-09-12 15:26:15.702127 1904
2021-09-12 15:26:15.708099 1933
2021-09-12 15:26:15.714082 1933
2021-09-12 15:26:15.721063 1927
2021-09-12 15:26:15.727220 1921
2021-09-12 15:26:15.733208 1921
2021-09-12 15:26:15.739188 1943
2021-09-12 15:26:15.746168 1959
2021-09-12 15:26:15.752153 1975
2021-09-12 15:26:15.758137 1979
2021-09-12 15:26:15.764122 1959
2021-09-12 15:26:15.771103 1964
2021-09-12 15:26:15.777087 1973
2021-09-12 15:26:15.783078 1950
2021-09-12 15:26:15.789055 1939
2021-09-12 15:26:15.796036 1952
2021-09-12 15:26:15.802025 1936
2021-09-12 15:26:15.808004 1956
2021-09-12 15:26:15.814985 1957
2021-09-12 15:26:15.820975 1979
2021-09-12 15:26:15.826997 1991
2021-09-12 15:26:15.832937 1975
2021-09-12 15:26:15.838922 1958
2021-09-12 15:26:15.846203 1983
2021-09-12 15:26:15.852187 1982
2021-09-12 15:26:15.858175 1985
2021-09-12 15:26:15.864155 1968
2021-09-12 15:26:15.871137 1978
2021-09-12 15:26:15.877125 2035
2021-09-12 15:26:15.883105 2085
2021-09-12 15:26:15.889089 2082
2021-09-12 15:26:15.896071 2019
2021-09-12 15:26:15.902056 2017
2021-09-12 15:26:15.908039 2034
2021-09-12 15:26:15.914022 2007
2021-09-12 15:26:15.921008 1967
2021-09-12 15:26:15.926988 1972
2021-09-12 15:26:15.932976 1980
2021-09-12 15:26:15.939954 1979
2021-09-12 15:26:15.945940 1961
2021-09-12 15:26:15.951921 1947
2021-09-12 15:26:15.957905 1968
2021-09-12 15:26:15.964886 1966
2021-09-12 15:26:15.970899 1941
2021-09-12 15:26:15.976854 1968
2021-09-12 15:26:15.982842 1955
2021-09-12 15:26:15.989819 1936
2021-09-12 15:26:15.995808 1930
2021-09-12 15:26:16.001793 1946
2021-09-12 15:26:16.007772 1957
2021-09-12 15:26:16.014757 1899
2021-09-12 15:26:16.020737 1840
2021-09-12 15:26:16.026722 1889
2021-09-12 15:26:16.033704 1905
2021-09-12 15:26:16.039685 1895
2021-09-12 15:26:16.045670 2342
2021-09-12 15:26:16.051654 2945
2021-09-12 15:26:16.058635 2960
2021-09-12 15:26:16.064620 2591
2021-09-12 15:26:16.070609 2255
2021-09-12 15:26:16.077585 2089
2021-09-12 15:26:16.083569 1950
2021-09-12 15:26:16.089557 1935
2021-09-12 15:26:16.095537 1933
2021-09-12 15:26:16.102518 1897
2021-09-12 15:26:16.108502 1903
2021-09-12 15:26:16.114492 1883
2021-09-12 15:26:16.120493 1890
2021-09-12 15:26:16.127452 1917
2021-09-12 15:26:16.133435 1897
2021-09-12 15:26:16.139424 1925
2021-09-12 15:26:16.145404 1927
2021-09-12 15:26:16.152385 1888
2021-09-12 15:26:16.158369 1936
2021-09-12 15:26:16.164356 1939
2021-09-12 15:26:16.170337 1893
2021-09-12 15:26:16.177318 1904
2021-09-12 15:26:16.183022 1891
2021-09-12 15:26:16.189121 1926
2021-09-12 15:26:16.196097 1937
2021-09-12 15:26:16.202081 1914
2021-09-12 15:26:16.208066 1917
2021-09-12 15:26:16.215047 1895
2021-09-12 15:26:16.221031 1887
2021-09-12 15:26:16.227033 1903
2021-09-12 15:26:16.232999 1904
2021-09-12 15:26:16.239980 1905
2021-09-12 15:26:16.245969 1901
2021-09-12 15:26:16.251948 1882
2021-09-12 15:26:16.257938 1916
2021-09-12 15:26:16.264913 1889
2021-09-12 15:26:16.270898 1911
2021-09-12 15:26:16.276883 1917
2021-09-12 15:26:16.282865 1895
2021-09-12 15:26:16.289846 1919
2021-09-12 15:26:16.295836 1945
2021-09-12 15:26:16.301819 1940
2021-09-12 15:26:16.307803 1951
2021-09-12 15:26:16.314780 1987
2021-09-12 15:26:16.320764 1920
2021-09-12 15:26:16.326748 1904
2021-09-12 15:26:16.333730 1906
2021-09-12 15:26:16.339748 1923
2021-09-12 15:26:16.345697 1925
2021-09-12 15:26:16.352679 1897
2021-09-12 15:26:16.358673 1891
2021-09-12 15:26:16.364798 1904
2021-09-12 15:26:16.370635 1915
2021-09-12 15:26:16.377611 1917
2021-09-12 15:26:16.383596 1905
2021-09-12 15:26:16.389580 1912
2021-09-12 15:26:16.395565 1921
2021-09-12 15:26:16.401551 1900
2021-09-12 15:26:16.408529 1920
2021-09-12 15:26:16.414513 1915
2021-09-12 15:26:16.420497 1915
2021-09-12 15:26:16.427478 1910
2021-09-12 15:26:16.433463 1895
2021-09-12 15:26:16.439446 1897
2021-09-12 15:26:16.445435 1921
2021-09-12 15:26:16.452428 1911
2021-09-12 15:26:16.458397 1913
2021-09-12 15:26:16.464381 1894
2021-09-12 15:26:16.470363 1920
2021-09-12 15:26:16.477345 1937
2021-09-12 15:26:16.483334 1914
2021-09-12 15:26:16.489313 1907
2021-09-12 15:26:16.495297 1910
2021-09-12 15:26:16.502284 1889
2021-09-12 15:26:16.508262 1904
2021-09-12 15:26:16.514247 1905
2021-09-12 15:26:16.521228 1910
2021-09-12 15:26:16.527212 1927
2021-09-12 15:26:16.533196 1927
2021-09-12 15:26:16.539180 1941
2021-09-12 15:26:16.546161 1950
2021-09-12 15:26:16.552149 1946
2021-09-12 15:26:16.558130 1957
2021-09-12 15:26:16.564117 1951
2021-09-12 15:26:16.571094 1983
2021-09-12 15:26:16.577080 1978
2021-09-12 15:26:16.583063 1967
2021-09-12 15:26:16.590044 1959
2021-09-12 15:26:16.596029 1973
2021-09-12 15:26:16.602012 1971
2021-09-12 15:26:16.607995 1950
2021-09-12 15:26:16.614977 1878
2021-09-12 15:26:16.620961 1881
2021-09-12 15:26:16.626949 1922
2021-09-12 15:26:16.632934 1875
2021-09-12 15:26:16.639910 1872
2021-09-12 15:26:16.645895 1904
2021-09-12 15:26:16.651881 1876
2021-09-12 15:26:16.658860 1879
2021-09-12 15:26:16.664843 1904
2021-09-12 15:26:16.670832 1898
2021-09-12 15:26:16.676813 1865
2021-09-12 15:26:16.682799 1846
2021-09-12 15:26:16.689802 1863
2021-09-12 15:26:16.695762 1873
2021-09-12 15:26:16.702002 1829
2021-09-12 15:26:16.708727 1802
2021-09-12 15:26:16.714714 1852
2021-09-12 15:26:16.720695 1872
2021-09-12 15:26:16.726678 1856
2021-09-12 15:26:16.733660 2037
2021-09-12 15:26:16.739675 2494
2021-09-12 15:26:16.745628 2671
2021-09-12 15:26:16.751612 2423
2021-09-12 15:26:16.758596 2218
2021-09-12 15:26:16.764580 2065
2021-09-12 15:26:16.770596 1840
2021-09-12 15:26:16.777543 1793
2021-09-12 15:26:16.783527 1815
2021-09-12 15:26:16.789572 1806
2021-09-12 15:26:16.796492 1828
2021-09-12 15:26:16.802475 1835
2021-09-12 15:26:16.808465 1843
2021-09-12 15:26:16.814449 1867
2021-09-12 15:26:16.820428 1856
2021-09-12 15:26:16.827409 1842
2021-09-12 15:26:16.833394 1840
2021-09-12 15:26:16.839377 1833
2021-09-12 15:26:16.845360 1861
2021-09-12 15:26:16.852342 1863
2021-09-12 15:26:16.858331 1878
2021-09-12 15:26:16.864310 1872
2021-09-12 15:26:16.870300 1850
2021-09-12 15:26:16.877275 1879
2021-09-12 15:26:16.883260 1870
2021-09-12 15:26:16.889243 1867
2021-09-12 15:26:16.896224 1885
2021-09-12 15:26:16.902209 1873
2021-09-12 15:26:16.908192 1873
2021-09-12 15:26:16.914180 1856
2021-09-12 15:26:16.921158 1834
2021-09-12 15:26:16.927146 1857
2021-09-12 15:26:16.933131 1847
2021-09-12 15:26:16.939111 1834
2021-09-12 15:26:16.946093 1863
2021-09-12 15:26:16.952081 1872
2021-09-12 15:26:16.958059 1883
2021-09-12 15:26:16.964045 1865
2021-09-12 15:26:16.971029 1868
2021-09-12 15:26:16.977013 1894
2021-09-12 15:26:16.982993 1902
2021-09-12 15:26:16.989974 1904
2021-09-12 15:26:16.995962 1887
2021-09-12 15:26:17.001943 1863
2021-09-12 15:26:17.007931 1866
2021-09-12 15:26:17.014907 1885
2021-09-12 15:26:17.020892 1872
2021-09-12 15:26:17.026876 1877
2021-09-12 15:26:17.033856 1867
2021-09-12 15:26:17.039841 1847
2021-09-12 15:26:17.045830 1851
2021-09-12 15:26:17.051809 1862
2021-09-12 15:26:17.057795 1876
2021-09-12 15:26:17.064774 1859
2021-09-12 15:26:17.070758 1857
2021-09-12 15:26:17.076742 1863
2021-09-12 15:26:17.082727 1861
2021-09-12 15:26:17.089707 1866
2021-09-12 15:26:17.095692 1855
2021-09-12 15:26:17.101679 1829
2021-09-12 15:26:17.108656 1855
2021-09-12 15:26:17.114640 1887
2021-09-12 15:26:17.120630 1877
2021-09-12 15:26:17.126613 1868
2021-09-12 15:26:17.133590 1862
2021-09-12 15:26:17.139574 1862
2021-09-12 15:26:17.145558 1850
2021-09-12 15:26:17.151543 1835
2021-09-12 15:26:17.158525 1868
2021-09-12 15:26:17.164517 1873
2021-09-12 15:26:17.170496 1863
2021-09-12 15:26:17.176475 1863
2021-09-12 15:26:17.183461 1845
2021-09-12 15:26:17.189458 1858
2021-09-12 15:26:17.195425 1865
2021-09-12 15:26:17.202406 1863
2021-09-12 15:26:17.208390 1861
2021-09-12 15:26:17.214377 1850
2021-09-12 15:26:17.220358 1869
2021-09-12 15:26:17.227339 1897
2021-09-12 15:26:17.233323 1865
2021-09-12 15:26:17.239312 1850
2021-09-12 15:26:17.246288 1872
2021-09-12 15:26:17.252273 1909
2021-09-12 15:26:17.258261 1946
2021-09-12 15:26:17.264241 1951
2021-09-12 15:26:17.271222 1935
2021-09-12 15:26:17.277206 1946
2021-09-12 15:26:17.283191 1919
2021-09-12 15:26:17.289178 1897
2021-09-12 15:26:17.295158 1899
2021-09-12 15:26:17.302143 1861
2021-09-12 15:26:17.308129 1866
2021-09-12 15:26:17.314107 1878
2021-09-12 15:26:17.321088 1854
2021-09-12 15:26:17.327072 1830
2021-09-12 15:26:17.333060 1811
2021-09-12 15:26:17.339046 1830
2021-09-12 15:26:17.346026 1856
2021-09-12 15:26:17.352005 1855
2021-09-12 15:26:17.358041 1866
2021-09-12 15:26:17.364971 1861
2021-09-12 15:26:17.370955 1856
2021-09-12 15:26:17.376944 1856
2021-09-12 15:26:17.382938 1835
2021-09-12 15:26:17.389905 1823
2021-09-12 15:26:17.395889 1746
2021-09-12 15:26:17.401873 1758
2021-09-12 15:26:17.407857 1795
2021-09-12 15:26:17.414837 1777
2021-09-12 15:26:17.420826 2032
2021-09-12 15:26:17.426809 2583
2021-09-12 15:26:17.432790 2800
2021-09-12 15:26:17.439771 2544
2021-09-12 15:26:17.445755 2275
2021-09-12 15:26:17.451739 2089
2021-09-12 15:26:17.458720 1872
2021-09-12 15:26:17.464366 1792
2021-09-12 15:26:17.471354 1829
2021-09-12 15:26:17.477333 1805
2021-09-12 15:26:17.483322 1774
2021-09-12 15:26:17.489302 1779
2021-09-12 15:26:17.496283 1823
2021-09-12 15:26:17.502268 1840
2021-09-12 15:26:17.508252 1853
2021-09-12 15:26:17.514235 1840
2021-09-12 15:26:17.520219 1834
2021-09-12 15:26:17.527201 1865
2021-09-12 15:26:17.533184 1867
2021-09-12 15:26:17.539173 1850
2021-09-12 15:26:17.545153 1814
2021-09-12 15:26:17.551911 1801
2021-09-12 15:26:17.557892 1839
2021-09-12 15:26:17.564579 1860
2021-09-12 15:26:17.570571 1854
2021-09-12 15:26:17.576550 1873
2021-09-12 15:26:17.583532 1868
2021-09-12 15:26:17.589517 1852
2021-09-12 15:26:17.595500 1868
2021-09-12 15:26:17.601493 1827
2021-09-12 15:26:17.608466 1837
2021-09-12 15:26:17.614453 1863
2021-09-12 15:26:17.620438 1839
2021-09-12 15:26:17.627415 1847
2021-09-12 15:26:17.633403 1844
2021-09-12 15:26:17.639383 1841
2021-09-12 15:26:17.645381 1853
2021-09-12 15:26:17.652347 1840
2021-09-12 15:26:17.658332 1856
2021-09-12 15:26:17.664316 1887
2021-09-12 15:26:17.670996 1900
2021-09-12 15:26:17.676981 1914
2021-09-12 15:26:17.682965 1895
2021-09-12 15:26:17.688949 1886
2021-09-12 15:26:17.695931 1903
2021-09-12 15:26:17.701916 1902
2021-09-12 15:26:17.707899 1892
2021-09-12 15:26:17.714879 1894
2021-09-12 15:26:17.720864 1881
2021-09-12 15:26:17.726879 1904
2021-09-12 15:26:17.732832 1897
2021-09-12 15:26:17.739813 1872
2021-09-12 15:26:17.745797 1872
2021-09-12 15:26:17.751781 1861
2021-09-12 15:26:17.758762 1879
2021-09-12 15:26:17.764746 1894
2021-09-12 15:26:17.770731 1885
2021-09-12 15:26:17.776715 1904
2021-09-12 15:26:17.783696 1926
2021-09-12 15:26:17.789679 1935
2021-09-12 15:26:17.795668 1892
2021-09-12 15:26:17.801652 1870
2021-09-12 15:26:17.808630 1894
2021-09-12 15:26:17.814617 1921
2021-09-12 15:26:17.820602 1908
2021-09-12 15:26:17.826581 1913
2021-09-12 15:26:17.833563 1907
2021-09-12 15:26:17.839546 1921
2021-09-12 15:26:17.845530 1918
2021-09-12 15:26:17.851519 1905
2021-09-12 15:26:17.858495 1922
2021-09-12 15:26:17.864484 1927
2021-09-12 15:26:17.871119 1924
2021-09-12 15:26:17.877102 1917
2021-09-12 15:26:17.883086 1893
2021-09-12 15:26:17.889070 1904
2021-09-12 15:26:17.896052 1927
2021-09-12 15:26:17.902036 1923
2021-09-12 15:26:17.908020 1925
2021-09-12 15:26:17.914004 1926
2021-09-12 15:26:17.920985 1895
2021-09-12 15:26:17.926970 1894
2021-09-12 15:26:17.932957 1905
2021-09-12 15:26:17.939937 1919
2021-09-12 15:26:17.945921 1940
2021-09-12 15:26:17.951903 1931
2021-09-12 15:26:17.957886 1919
2021-09-12 15:26:17.964869 1940
2021-09-12 15:26:17.970398 1951
2021-09-12 15:26:17.977380 1934
2021-09-12 15:26:17.983364 1903
2021-09-12 15:26:17.989348 1919
2021-09-12 15:26:17.995336 1998
2021-09-12 15:26:18.002315 2005
2021-09-12 15:26:18.008297 2025
2021-09-12 15:26:18.014282 2032
2021-09-12 15:26:18.020266 1991
2021-09-12 15:26:18.027247 1981
2021-09-12 15:26:18.033231 1952
2021-09-12 15:26:18.039227 1934
2021-09-12 15:26:18.045198 1936
2021-09-12 15:26:18.052180 1898
2021-09-12 15:26:18.058169 1887
2021-09-12 15:26:18.064148 1899
2021-09-12 15:26:18.070691 1914
2021-09-12 15:26:18.076675 1936
2021-09-12 15:26:18.082659 1910
2021-09-12 15:26:18.089640 1898
2021-09-12 15:26:18.095625 1910
2021-09-12 15:26:18.101608 1913
2021-09-12 15:26:18.108589 1936
2021-09-12 15:26:18.114578 1927
2021-09-12 15:26:18.120559 1883
2021-09-12 15:26:18.126545 1876
2021-09-12 15:26:18.133523 1841
2021-09-12 15:26:18.139507 1805
2021-09-12 15:26:18.145491 1839
2021-09-12 15:26:18.151478 1840
2021-09-12 15:26:18.158456 1850
2021-09-12 15:26:18.164440 2230
2021-09-12 15:26:18.170425 2890
2021-09-12 15:26:18.177405 2913
2021-09-12 15:26:18.183394 2559
2021-09-12 15:26:18.189379 2321
2021-09-12 15:26:18.195358 2085
2021-09-12 15:26:18.202339 1897
2021-09-12 15:26:18.208323 1895
2021-09-12 15:26:18.214311 1906
2021-09-12 15:26:18.220290 1871
2021-09-12 15:26:18.227272 1869
2021-09-12 15:26:18.233256 1883
2021-09-12 15:26:18.239240 1866
2021-09-12 15:26:18.245229 1872
2021-09-12 15:26:18.252206 1872
2021-09-12 15:26:18.258189 1884
2021-09-12 15:26:18.264173 1894
2021-09-12 15:26:18.270158 1883
2021-09-12 15:26:18.277140 1898
2021-09-12 15:26:18.283123 1897
2021-09-12 15:26:18.289111 1887
2021-09-12 15:26:18.296088 1891
2021-09-12 15:26:18.302076 1871
2021-09-12 15:26:18.308074 1886
2021-09-12 15:26:18.314043 1894
2021-09-12 15:26:18.321021 1882
2021-09-12 15:26:18.327035 1895
2021-09-12 15:26:18.333019 1885
2021-09-12 15:26:18.339003 1872
2021-09-12 15:26:18.345956 1883
2021-09-12 15:26:18.351971 1856
2021-09-12 15:26:18.357950 1861
2021-09-12 15:26:18.363907 1873
2021-09-12 15:26:18.370888 1873
2021-09-12 15:26:18.376872 1859
2021-09-12 15:26:18.382861 1862
2021-09-12 15:26:18.389837 1880
2021-09-12 15:26:18.395822 1905
2021-09-12 15:26:18.401807 1894
2021-09-12 15:26:18.408787 1899
2021-09-12 15:26:18.414770 1905
2021-09-12 15:26:18.420758 1919
2021-09-12 15:26:18.426742 1975
2021-09-12 15:26:18.432722 1925
2021-09-12 15:26:18.439704 1927
2021-09-12 15:26:18.445688 1939
2021-09-12 15:26:18.451672 1921
2021-09-12 15:26:18.457656 1924
2021-09-12 15:26:18.464637 1923
2021-09-12 15:26:18.470621 1918
2021-09-12 15:26:18.476605 1929
2021-09-12 15:26:18.483586 1899
2021-09-12 15:26:18.489571 1892
2021-09-12 15:26:18.495554 1942
2021-09-12 15:26:18.501543 1936
2021-09-12 15:26:18.508521 1935
2021-09-12 15:26:18.514504 1936
2021-09-12 15:26:18.520489 1931
2021-09-12 15:26:18.526473 1920
2021-09-12 15:26:18.533456 1904
2021-09-12 15:26:18.539441 1923
2021-09-12 15:26:18.545426 1937
2021-09-12 15:26:18.551409 1908
2021-09-12 15:26:18.558387 1903
2021-09-12 15:26:18.564376 1929
2021-09-12 15:26:18.570356 1936
2021-09-12 15:26:18.577336 1926
2021-09-12 15:26:18.583320 1906
2021-09-12 15:26:18.589306 1931
2021-09-12 15:26:18.595287 1957
2021-09-12 15:26:18.602270 1919
2021-09-12 15:26:18.608253 1903
2021-09-12 15:26:18.614242 1904
2021-09-12 15:26:18.620226 1927
2021-09-12 15:26:18.627203 1942
2021-09-12 15:26:18.633186 1927
2021-09-12 15:26:18.639171 1924
2021-09-12 15:26:18.646152 1919
2021-09-12 15:26:18.652136 1904
2021-09-12 15:26:18.658120 1936
2021-09-12 15:26:18.664108 1939
2021-09-12 15:26:18.671085 1909
2021-09-12 15:26:18.677073 1938
2021-09-12 15:26:18.683053 1905
2021-09-12 15:26:18.689038 1898
2021-09-12 15:26:18.696018 1936
2021-09-12 15:26:18.702039 1951
2021-09-12 15:26:18.708986 1955
2021-09-12 15:26:18.714969 1946
2021-09-12 15:26:18.720954 1936
2021-09-12 15:26:18.726938 1981
2021-09-12 15:26:18.732926 1984
2021-09-12 15:26:18.739904 2000
2021-09-12 15:26:18.745891 2007
2021-09-12 15:26:18.751871 1987
2021-09-12 15:26:18.758857 1991
2021-09-12 15:26:18.764840 2009
2021-09-12 15:26:18.770824 1945
2021-09-12 15:26:18.776804 1903
2021-09-12 15:26:18.783785 1872
2021-09-12 15:26:18.789769 1899
2021-09-12 15:26:18.795791 1897
2021-09-12 15:26:18.801737 1869
2021-09-12 15:26:18.808719 1878
2021-09-12 15:26:18.814737 1899
2021-09-12 15:26:18.820722 1891
2021-09-12 15:26:18.826671 1891
2021-09-12 15:26:18.833650 1885
2021-09-12 15:26:18.839636 1898
2021-09-12 15:26:18.845619 1889
2021-09-12 15:26:18.851607 1872
2021-09-12 15:26:18.858583 1884
2021-09-12 15:26:18.864568 1861
2021-09-12 15:26:18.870553 1753
2021-09-12 15:26:18.876536 1795
2021-09-12 15:26:18.883518 1829
2021-09-12 15:26:18.889503 1770
2021-09-12 15:26:18.895487 2032
2021-09-12 15:26:18.901469 2576
2021-09-12 15:26:18.907989 2800
2021-09-12 15:26:18.913948 2583
2021-09-12 15:26:18.920930 2252
2021-09-12 15:26:18.926914 2091
2021-09-12 15:26:18.932902 1846
2021-09-12 15:26:18.939880 1808
2021-09-12 15:26:18.945866 1861
2021-09-12 15:26:18.951850 1814
2021-09-12 15:26:18.957834 1767
2021-09-12 15:26:18.964814 1779
2021-09-12 15:26:18.970799 1785
2021-09-12 15:26:18.976808 1822
2021-09-12 15:26:18.982766 1824
2021-09-12 15:26:18.989749 1809
2021-09-12 15:26:18.995758 1823
2021-09-12 15:26:19.001745 1808
2021-09-12 15:26:19.008700 1808
2021-09-12 15:26:19.014681 1805
2021-09-12 15:26:19.020665 1805
2021-09-12 15:26:19.027646 1824
2021-09-12 15:26:19.033629 1804
2021-09-12 15:26:19.039612 1794
2021-09-12 15:26:19.045596 1809
2021-09-12 15:26:19.051609 1803
2021-09-12 15:26:19.058590 1808
2021-09-12 15:26:19.064583 1809
2021-09-12 15:26:19.070535 1792
2021-09-12 15:26:19.077512 1793
2021-09-12 15:26:19.083496 1790
2021-09-12 15:26:19.089509 1776
2021-09-12 15:26:19.095464 1782
2021-09-12 15:26:19.101448 1776
2021-09-12 15:26:19.108457 1792
2021-09-12 15:26:19.114443 1806
2021-09-12 15:26:19.120437 1776
2021-09-12 15:26:19.127425 1801
2021-09-12 15:26:19.133363 1805
2021-09-12 15:26:19.139347 1818
2021-09-12 15:26:19.145360 1854
2021-09-12 15:26:19.152313 1840
2021-09-12 15:26:19.158296 1814
2021-09-12 15:26:19.164313 1809
2021-09-12 15:26:19.170299 1827
2021-09-12 15:26:19.177274 1840
2021-09-12 15:26:19.183262 1826
2021-09-12 15:26:19.189214 1794
2021-09-12 15:26:19.196194 1805
2021-09-12 15:26:19.202178 1815
2021-09-12 15:26:19.208163 1841
2021-09-12 15:26:19.214149 1845
2021-09-12 15:26:19.221159 1795
2021-09-12 15:26:19.227114 1808
2021-09-12 15:26:19.233096 1829
2021-09-12 15:26:19.239080 1833
2021-09-12 15:26:19.246062 1845
2021-09-12 15:26:19.252046 1836
2021-09-12 15:26:19.258065 1849
2021-09-12 15:26:19.264015 1858
2021-09-12 15:26:19.270994 1846
2021-09-12 15:26:19.277012 1846
2021-09-12 15:26:19.282962 1840
2021-09-12 15:26:19.288976 1872
2021-09-12 15:26:19.295927 1891
2021-09-12 15:26:19.301915 1856
2021-09-12 15:26:19.307899 1861
2021-09-12 15:26:19.314876 1891
2021-09-12 15:26:19.320861 1890
2021-09-12 15:26:19.326846 1887
2021-09-12 15:26:19.333827 1877
2021-09-12 15:26:19.339812 1873
2021-09-12 15:26:19.345794 1895
2021-09-12 15:26:19.351815 1897
2021-09-12 15:26:19.358762 1910
2021-09-12 15:26:19.364746 1936
2021-09-12 15:26:19.370730 1925
2021-09-12 15:26:19.376714 1924
2021-09-12 15:26:19.383697 1917
2021-09-12 15:26:19.389677 1925
2021-09-12 15:26:19.395662 1936
2021-09-12 15:26:19.401646 1923
2021-09-12 15:26:19.408627 1943
2021-09-12 15:26:19.414641 1954
2021-09-12 15:26:19.420594 1963
2021-09-12 15:26:19.426582 1994
2021-09-12 15:26:19.433560 2000
2021-09-12 15:26:19.439548 1990
2021-09-12 15:26:19.445532 2039
2021-09-12 15:26:19.451513 2039
2021-09-12 15:26:19.458492 2047
2021-09-12 15:26:19.464479 2064
2021-09-12 15:26:19.470460 2035
2021-09-12 15:26:19.476465 2023
2021-09-12 15:26:19.483426 1989
2021-09-12 15:26:19.489412 1989
2021-09-12 15:26:19.495394 2022
2021-09-12 15:26:19.502375 2015
2021-09-12 15:26:19.508391 1991
2021-09-12 15:26:19.514345 1978
2021-09-12 15:26:19.520331 1994
2021-09-12 15:26:19.527342 2020
2021-09-12 15:26:19.533293 2001
2021-09-12 15:26:19.539279 1999
2021-09-12 15:26:19.545290 2019
2021-09-12 15:26:19.552271 2022
2021-09-12 15:26:19.558256 2041
2021-09-12 15:26:19.564212 2039
2021-09-12 15:26:19.571245 2016
2021-09-12 15:26:19.577177 1973
2021-09-12 15:26:19.583192 1930
2021-09-12 15:26:19.589144 1987
2021-09-12 15:26:19.596127 2032
2021-09-12 15:26:19.602108 2019
2021-09-12 15:26:19.608093 2262
2021-09-12 15:26:19.614080 2762
2021-09-12 15:26:19.620061 2891
2021-09-12 15:26:19.627042 2626
2021-09-12 15:26:19.633031 2406
2021-09-12 15:26:19.639010 2266
2021-09-12 15:26:19.645991 2073
2021-09-12 15:26:19.651978 2012
2021-09-12 15:26:19.657959 2057
2021-09-12 15:26:19.663943 2039
2021-09-12 15:26:19.670925 2016
2021-09-12 15:26:19.676912 2055
2021-09-12 15:26:19.682892 2064
2021-09-12 15:26:19.688877 2070
2021-09-12 15:26:19.695858 2096
2021-09-12 15:26:19.701846 2100
2021-09-12 15:26:19.707827 2093
2021-09-12 15:26:19.714808 2078
2021-09-12 15:26:19.720792 2067
2021-09-12 15:26:19.726775 2097
2021-09-12 15:26:19.732764 2140
2021-09-12 15:26:19.739740 2123
2021-09-12 15:26:19.745725 2119
2021-09-12 15:26:19.751713 2101
2021-09-12 15:26:19.757693 2113
2021-09-12 15:26:19.764675 2135
2021-09-12 15:26:19.770659 2132
2021-09-12 15:26:19.776643 2143
2021-09-12 15:26:19.783623 2127
2021-09-12 15:26:19.789607 2104
2021-09-12 15:26:19.795594 2127
2021-09-12 15:26:19.801586 2117
2021-09-12 15:26:19.808559 2127
2021-09-12 15:26:19.814545 2127
2021-09-12 15:26:19.820526 2101
2021-09-12 15:26:19.826508 2149
2021-09-12 15:26:19.833491 2163
2021-09-12 15:26:19.839475 2117
2021-09-12 15:26:19.845471 2103
2021-09-12 15:26:19.851442 2131
2021-09-12 15:26:19.858435 2173
2021-09-12 15:26:19.864410 2189
2021-09-12 15:26:19.870395 2166
2021-09-12 15:26:19.877372 2173
2021-09-12 15:26:19.883357 2192
2021-09-12 15:26:19.889341 2188
2021-09-12 15:26:19.895327 2161
2021-09-12 15:26:19.902306 2148
2021-09-12 15:26:19.908289 2166
2021-09-12 15:26:19.914274 2165
2021-09-12 15:26:19.920263 2149
2021-09-12 15:26:19.927239 2160
2021-09-12 15:26:19.933223 2157
2021-09-12 15:26:19.939208 2133
2021-09-12 15:26:19.946190 2160
2021-09-12 15:26:19.952173 2154
2021-09-12 15:26:19.958189 2155
2021-09-12 15:26:19.964169 2163
2021-09-12 15:26:19.970124 2149
2021-09-12 15:26:19.977105 2160
2021-09-12 15:26:19.983093 2166
2021-09-12 15:26:19.989077 2173
2021-09-12 15:26:19.996054 2160
2021-09-12 15:26:20.002043 2137
2021-09-12 15:26:20.008028 2134
2021-09-12 15:26:20.014008 2138
2021-09-12 15:26:20.020989 2160
2021-09-12 15:26:20.026973 2186
2021-09-12 15:26:20.032955 2160
2021-09-12 15:26:20.038941 2135
2021-09-12 15:26:20.045921 2160
2021-09-12 15:26:20.051910 2143
2021-09-12 15:26:20.057889 2142
2021-09-12 15:26:20.063874 2157
2021-09-12 15:26:20.070856 2137
2021-09-12 15:26:20.076840 2140
2021-09-12 15:26:20.082827 2158
2021-09-12 15:26:20.089807 2157
2021-09-12 15:26:20.095788 2149
2021-09-12 15:26:20.101772 2137
2021-09-12 15:26:20.107757 2135
2021-09-12 15:26:20.114737 2143
2021-09-12 15:26:20.120723 2135
2021-09-12 15:26:20.126711 2135
2021-09-12 15:26:20.133687 2132
2021-09-12 15:26:20.139672 2153
2021-09-12 15:26:20.145655 2160
2021-09-12 15:26:20.151640 2122
2021-09-12 15:26:20.158622 2131
2021-09-12 15:26:20.164604 2192
2021-09-12 15:26:20.170589 2178
2021-09-12 15:26:20.176576 2187
2021-09-12 15:26:20.183554 2189
2021-09-12 15:26:20.189542 2160
2021-09-12 15:26:20.195526 2160
2021-09-12 15:26:20.201507 2134
2021-09-12 15:26:20.208489 2127
2021-09-12 15:26:20.214472 2116
2021-09-12 15:26:20.220454 2047
2021-09-12 15:26:20.226439 2032
2021-09-12 15:26:20.233419 2032
2021-09-12 15:26:20.239409 2031
2021-09-12 15:26:20.245388 2060
2021-09-12 15:26:20.252370 2027
2021-09-12 15:26:20.258353 2057
2021-09-12 15:26:20.264338 2079
2021-09-12 15:26:20.270322 2043
2021-09-12 15:26:20.276816 2037
2021-09-12 15:26:20.282797 2043
2021-09-12 15:26:20.289779 2032
2021-09-12 15:26:20.295763 2012
2021-09-12 15:26:20.301782 1952
2021-09-12 15:26:20.308732 1893
2021-09-12 15:26:20.314714 1930
2021-09-12 15:26:20.320698 1971
2021-09-12 15:26:20.326681 1953
2021-09-12 15:26:20.333662 2282
2021-09-12 15:26:20.339647 2882
2021-09-12 15:26:20.345630 2990
2021-09-12 15:26:20.351646 2640
2021-09-12 15:26:20.358623 2387
2021-09-12 15:26:20.364585 2203
2021-09-12 15:26:20.370564 1968
2021-09-12 15:26:20.377545 1968
2021-09-12 15:26:20.383531 1965
2021-09-12 15:26:20.389514 1917
2021-09-12 15:26:20.395497 1929
2021-09-12 15:26:20.402480 1947
2021-09-12 15:26:20.408463 1941
2021-09-12 15:26:20.414450 1947
2021-09-12 15:26:20.420468 1937
2021-09-12 15:26:20.427426 1939
2021-09-12 15:26:20.433441 1936
2021-09-12 15:26:20.439382 1934
2021-09-12 15:26:20.445391 1942
2021-09-12 15:26:20.452346 1935
2021-09-12 15:26:20.458367 1920
2021-09-12 15:26:20.464314 1923
2021-09-12 15:26:20.470299 1920
2021-09-12 15:26:20.477280 1934
2021-09-12 15:26:20.483292 1935
2021-09-12 15:26:20.489245 1918
2021-09-12 15:26:20.495230 1907
2021-09-12 15:26:20.502212 1888
2021-09-12 15:26:20.508196 1902
2021-09-12 15:26:20.514726 1900
2021-09-12 15:26:20.520706 1858
2021-09-12 15:26:20.526686 1856
2021-09-12 15:26:20.533665 1857
2021-09-12 15:26:20.539649 1842
2021-09-12 15:26:20.545633 1867
2021-09-12 15:26:20.551617 1871
2021-09-12 15:26:20.558599 1858
2021-09-12 15:26:20.564585 1865
2021-09-12 15:26:20.571097 1872
2021-09-12 15:26:20.577094 1891
2021-09-12 15:26:20.583078 1895
2021-09-12 15:26:20.589063 1899
2021-09-12 15:26:20.596044 1914
2021-09-12 15:26:20.602026 1904
2021-09-12 15:26:20.608011 1899
2021-09-12 15:26:20.614533 1894
2021-09-12 15:26:20.621032 1872
2021-09-12 15:26:20.627015 1878
2021-09-12 15:26:20.632998 1878
2021-09-12 15:26:20.639014 1863
2021-09-12 15:26:20.645962 1872
2021-09-12 15:26:20.651948 1866
2021-09-12 15:26:20.657930 1871
2021-09-12 15:26:20.663945 1868
2021-09-12 15:26:20.670935 1843
2021-09-12 15:26:20.676938 1857
2021-09-12 15:26:20.683006 1857
2021-09-12 15:26:20.689955 1850
2021-09-12 15:26:20.695936 1876
2021-09-12 15:26:20.701921 1871
2021-09-12 15:26:20.707904 1873
2021-09-12 15:26:20.714889 1862
2021-09-12 15:26:20.720869 1825
2021-09-12 15:26:20.726884 1859
2021-09-12 15:26:20.732914 1850
2021-09-12 15:26:20.739831 1825
2021-09-12 15:26:20.745843 1840
2021-09-12 15:26:20.751800 1849
2021-09-12 15:26:20.757806 1842
2021-09-12 15:26:20.764762 1837
2021-09-12 15:26:20.770748 1833
2021-09-12 15:26:20.776730 1851
2021-09-12 15:26:20.782875 1840
2021-09-12 15:26:20.789823 1818
2021-09-12 15:26:20.795807 1822
2021-09-12 15:26:20.801791 1817
2021-09-12 15:26:20.808773 1815
2021-09-12 15:26:20.814757 1850
2021-09-12 15:26:20.820741 1840
2021-09-12 15:26:20.826729 1832
2021-09-12 15:26:20.833708 1819
2021-09-12 15:26:20.839691 1827
2021-09-12 15:26:20.845676 1801
2021-09-12 15:26:20.851659 1789
2021-09-12 15:26:20.858644 1814
2021-09-12 15:26:20.864629 1837
2021-09-12 15:26:20.870636 1823
2021-09-12 15:26:20.877590 1839
2021-09-12 15:26:20.883572 1834
2021-09-12 15:26:20.889556 1819
2021-09-12 15:26:20.895545 1831
2021-09-12 15:26:20.902522 1843
2021-09-12 15:26:20.908510 1872
2021-09-12 15:26:20.914495 1887
2021-09-12 15:26:20.920475 1887
2021-09-12 15:26:20.927455 1875
2021-09-12 15:26:20.933439 1822
2021-09-12 15:26:20.939471 1781
2021-09-12 15:26:20.945439 1803
2021-09-12 15:26:20.952421 1787
2021-09-12 15:26:20.958443 1775
2021-09-12 15:26:20.964388 1776
2021-09-12 15:26:20.970372 1771
2021-09-12 15:26:20.977354 1783
2021-09-12 15:26:20.983281 1770
2021-09-12 15:26:20.989234 1746
2021-09-12 15:26:20.996212 1758
2021-09-12 15:26:21.002196 1751
2021-09-12 15:26:21.008218 1741
2021-09-12 15:26:21.014164 1757
2021-09-12 15:26:21.021145 1757
2021-09-12 15:26:21.027133 1749
2021-09-12 15:26:21.033149 1747
2021-09-12 15:26:21.039161 1693
2021-09-12 15:26:21.046114 1641
2021-09-12 15:26:21.052098 1663
2021-09-12 15:26:21.058088 1650
2021-09-12 15:26:21.064782 1702
2021-09-12 15:26:21.070781 2266
2021-09-12 15:26:21.076755 2761
2021-09-12 15:26:21.083737 2645
2021-09-12 15:26:21.089697 2297
2021-09-12 15:26:21.095681 2042
2021-09-12 15:26:21.101693 1858
2021-09-12 15:26:21.108641 1746
2021-09-12 15:26:21.114624 1747
2021-09-12 15:26:21.120637 1728
2021-09-12 15:26:21.126595 1694
2021-09-12 15:26:21.133578 1676
2021-09-12 15:26:21.139558 1680
2021-09-12 15:26:21.145577 1703
2021-09-12 15:26:21.151527 1696
2021-09-12 15:26:21.158509 1693
2021-09-12 15:26:21.164494 1697
2021-09-12 15:26:21.170476 1675
2021-09-12 15:26:21.176459 1687
2021-09-12 15:26:21.183473 1719
2021-09-12 15:26:21.189429 1727
2021-09-12 15:26:21.195408 1721
2021-09-12 15:26:21.201394 1693
2021-09-12 15:26:21.208378 1687
2021-09-12 15:26:21.214359 1707
2021-09-12 15:26:21.220341 1699
2021-09-12 15:26:21.226357 1695
2021-09-12 15:26:21.233338 1701
2021-09-12 15:26:21.239322 1685
2021-09-12 15:26:21.246275 1699
2021-09-12 15:26:21.252260 1680
2021-09-12 15:26:21.258242 1648
2021-09-12 15:26:21.264225 1669
2021-09-12 15:26:21.270240 1676
2021-09-12 15:26:21.277193 1673
2021-09-12 15:26:21.283174 1663
2021-09-12 15:26:21.289187 1677
2021-09-12 15:26:21.295142 1710
2021-09-12 15:26:21.302122 1702
2021-09-12 15:26:21.308108 1706
2021-09-12 15:26:21.314626 1727
2021-09-12 15:26:21.320615 1742
2021-09-12 15:26:21.326605 1758
2021-09-12 15:26:21.333588 1744
2021-09-12 15:26:21.339571 1744
2021-09-12 15:26:21.345552 1766
2021-09-12 15:26:21.351560 1730
2021-09-12 15:26:21.358517 1735
2021-09-12 15:26:21.364498 1757
2021-09-12 15:26:21.370482 1727
2021-09-12 15:26:21.376467 1726
2021-09-12 15:26:21.383449 1733
2021-09-12 15:26:21.389467 1744
2021-09-12 15:26:21.396413 1761
2021-09-12 15:26:21.402398 1744
2021-09-12 15:26:21.408382 1735
2021-09-12 15:26:21.414365 1749
2021-09-12 15:26:21.420350 1762
2021-09-12 15:26:21.427330 1767
2021-09-12 15:26:21.433313 1754
2021-09-12 15:26:21.439297 1758
2021-09-12 15:26:21.445311 1776
2021-09-12 15:26:21.451266 1759
2021-09-12 15:26:21.458246 1747
2021-09-12 15:26:21.464230 1775
2021-09-12 15:26:21.470214 1750
2021-09-12 15:26:21.477200 1759
2021-09-12 15:26:21.483181 1770
2021-09-12 15:26:21.489166 1776
2021-09-12 15:26:21.495148 1776
2021-09-12 15:26:21.502130 1759
2021-09-12 15:26:21.508114 1773
2021-09-12 15:26:21.514098 1788
2021-09-12 15:26:21.521138 1777
2021-09-12 15:26:21.527121 1793
2021-09-12 15:26:21.533106 1810
2021-09-12 15:26:21.539091 1786
2021-09-12 15:26:21.546088 1770
2021-09-12 15:26:21.552053 1776
2021-09-12 15:26:21.558038 1786
2021-09-12 15:26:21.564021 1808
2021-09-12 15:26:21.571004 1795
2021-09-12 15:26:21.576987 1797
2021-09-12 15:26:21.582971 1797
2021-09-12 15:26:21.588954 1782
2021-09-12 15:26:21.595936 1808
2021-09-12 15:26:21.601921 1808
2021-09-12 15:26:21.607905 1814
2021-09-12 15:26:21.613887 1825
2021-09-12 15:26:21.620929 1836
2021-09-12 15:26:21.626853 1856
2021-09-12 15:26:21.632836 1885
2021-09-12 15:26:21.639843 1890
2021-09-12 15:26:21.645826 1874
2021-09-12 15:26:21.651811 1857
2021-09-12 15:26:21.658792 1844
2021-09-12 15:26:21.664775 1840
2021-09-12 15:26:21.670760 1809
2021-09-12 15:26:21.676743 1811
2021-09-12 15:26:21.682726 1808
2021-09-12 15:26:21.688711 1803
2021-09-12 15:26:21.695692 1806
2021-09-12 15:26:21.701676 1808
2021-09-12 15:26:21.707691 1825
2021-09-12 15:26:21.714643 1806
2021-09-12 15:26:21.720625 1774
2021-09-12 15:26:21.726610 1790
2021-09-12 15:26:21.732593 1809
2021-09-12 15:26:21.739575 1808
2021-09-12 15:26:21.745559 1799
2021-09-12 15:26:21.751543 1803
2021-09-12 15:26:21.758556 1777
2021-09-12 15:26:21.764510 1714
2021-09-12 15:26:21.770495 1740
2021-09-12 15:26:21.776477 1797
2021-09-12 15:26:21.783457 1770
2021-09-12 15:26:21.789442 1883
2021-09-12 15:26:21.795459 2399
2021-09-12 15:26:21.801409 2618
2021-09-12 15:26:21.808391 2439
2021-09-12 15:26:21.814450 2236
2021-09-12 15:26:21.820360 2094
2021-09-12 15:26:21.827340 1851
2021-09-12 15:26:21.833326 1727
2021-09-12 15:26:21.839309 1773
2021-09-12 15:26:21.845292 1798
2021-09-12 15:26:21.851276 1776
2021-09-12 15:26:21.858290 1782
2021-09-12 15:26:21.864274 1803
2021-09-12 15:26:21.870226 1803
2021-09-12 15:26:21.877206 1810
2021-09-12 15:26:21.883191 1811
2021-09-12 15:26:21.889176 1812
2021-09-12 15:26:21.896156 1828
2021-09-12 15:26:21.902140 1838
2021-09-12 15:26:21.908124 1850
2021-09-12 15:26:21.914108 1851
2021-09-12 15:26:21.920092 1839
2021-09-12 15:26:21.927074 1835
2021-09-12 15:26:21.933058 1843
2021-09-12 15:26:21.939042 1842
2021-09-12 15:26:21.945028 1845
2021-09-12 15:26:21.952010 1838
2021-09-12 15:26:21.957993 1823
2021-09-12 15:26:21.963976 1826
2021-09-12 15:26:21.970958 1810
2021-09-12 15:26:21.976941 1808
2021-09-12 15:26:21.982954 1824
2021-09-12 15:26:21.988945 1839
2021-09-12 15:26:21.995924 1843
2021-09-12 15:26:22.001906 1826
2021-09-12 15:26:22.007889 1838
2021-09-12 15:26:22.013845 1870
2021-09-12 15:26:22.020828 1855
2021-09-12 15:26:22.026841 1857
2021-09-12 15:26:22.032790 1843
2021-09-12 15:26:22.038774 1866
2021-09-12 15:26:22.045755 1898
2021-09-12 15:26:22.051740 1878
2021-09-12 15:26:22.057724 1878
2021-09-12 15:26:22.064705 1877
2021-09-12 15:26:22.070690 1847
2021-09-12 15:26:22.076673 1845
2021-09-12 15:26:22.082657 1844
2021-09-12 15:26:22.089641 1843
2021-09-12 15:26:22.095622 1872
2021-09-12 15:26:22.101638 1865
2021-09-12 15:26:22.107618 1854
2021-09-12 15:26:22.114606 1869
2021-09-12 15:26:22.120589 1868
2021-09-12 15:26:22.126567 1862
2021-09-12 15:26:22.132525 1859
2021-09-12 15:26:22.139507 1839
2021-09-12 15:26:22.145490 1850
2021-09-12 15:26:22.151473 1855
2021-09-12 15:26:22.158454 1870
2021-09-12 15:26:22.164438 1878
2021-09-12 15:26:22.170436 1845
2021-09-12 15:26:22.176406 1866
2021-09-12 15:26:22.183388 1887
2021-09-12 15:26:22.189372 1886
2021-09-12 15:26:22.195355 1901
2021-09-12 15:26:22.201342 1875
2021-09-12 15:26:22.208323 1868
2021-09-12 15:26:22.214332 1870
2021-09-12 15:26:22.220288 1850
2021-09-12 15:26:22.226274 1871
2021-09-12 15:26:22.233254 1895
2021-09-12 15:26:22.239239 1857
2021-09-12 15:26:22.245223 1841
2021-09-12 15:26:22.252205 1886
2021-09-12 15:26:22.258187 1895
2021-09-12 15:26:22.264172 1895
2021-09-12 15:26:22.270156 1876
2021-09-12 15:26:22.277137 1889
2021-09-12 15:26:22.283121 1895
2021-09-12 15:26:22.289105 1879
2021-09-12 15:26:22.295088 1902
2021-09-12 15:26:22.302070 1910
2021-09-12 15:26:22.308055 1920
2021-09-12 15:26:22.314068 1923
2021-09-12 15:26:22.320024 1901
2021-09-12 15:26:22.327005 1927
2021-09-12 15:26:22.333017 1957
2021-09-12 15:26:22.338972 1942
2021-09-12 15:26:22.345953 1966
2021-09-12 15:26:22.351936 1973
2021-09-12 15:26:22.357922 1968
2021-09-12 15:26:22.363931 1973
2021-09-12 15:26:22.370887 1919
2021-09-12 15:26:22.376871 1887
2021-09-12 15:26:22.382855 1887
2021-09-12 15:26:22.388843 1871
2021-09-12 15:26:22.395823 1885
2021-09-12 15:26:22.401806 1886
2021-09-12 15:26:22.407787 1885
2021-09-12 15:26:22.413772 1891
2021-09-12 15:26:22.420780 1874
2021-09-12 15:26:22.426737 1872
2021-09-12 15:26:22.432722 1872
2021-09-12 15:26:22.439721 1872
2021-09-12 15:26:22.445719 1871
2021-09-12 15:26:22.451691 1872
2021-09-12 15:26:22.458651 1874
2021-09-12 15:26:22.464636 1855
2021-09-12 15:26:22.470651 1781
2021-09-12 15:26:22.476604 1787
2021-09-12 15:26:22.482587 1840
2021-09-12 15:26:22.489569 1821
2021-09-12 15:26:22.495552 1936
2021-09-12 15:26:22.501536 2378
2021-09-12 15:26:22.507521 2775
2021-09-12 15:26:22.514503 2673
2021-09-12 15:26:22.520487 2322
2021-09-12 15:26:22.526470 2163
2021-09-12 15:26:22.533452 1984
2021-09-12 15:26:22.539452 1832
2021-09-12 15:26:22.545454 1853
2021-09-12 15:26:22.551435 1861
2021-09-12 15:26:22.558384 1840
2021-09-12 15:26:22.563943 1843
2021-09-12 15:26:22.570105 1851
2021-09-12 15:26:22.577084 1860
2021-09-12 15:26:22.583098 1873
2021-09-12 15:26:22.589052 1863
2021-09-12 15:26:22.595065 1871
2021-09-12 15:26:22.602043 1872
2021-09-12 15:26:22.608001 1867
2021-09-12 15:26:22.613986 1882
2021-09-12 15:26:22.620980 1878
2021-09-12 15:26:22.626971 1874
2021-09-12 15:26:22.632936 1875
2021-09-12 15:26:22.638920 1888
2021-09-12 15:26:22.645901 1902
2021-09-12 15:26:22.651885 1869
2021-09-12 15:26:22.657868 1879
2021-09-12 15:26:22.663851 1903
2021-09-12 15:26:22.670833 1876
2021-09-12 15:26:22.676818 1872
2021-09-12 15:26:22.682801 1867
2021-09-12 15:26:22.688788 1863
2021-09-12 15:26:22.695767 1886
2021-09-12 15:26:22.701752 1869
2021-09-12 15:26:22.707735 1850
2021-09-12 15:26:22.714717 1854
2021-09-12 15:26:22.720700 1864
2021-09-12 15:26:22.726685 1885
2021-09-12 15:26:22.732670 1887
2021-09-12 15:26:22.739681 1879
2021-09-12 15:26:22.745666 1931
2021-09-12 15:26:22.751653 1950
2021-09-12 15:26:22.757633 1934
2021-09-12 15:26:22.764613 1914
2021-09-12 15:26:22.770568 1902
2021-09-12 15:26:22.776551 1908
2021-09-12 15:26:22.782535 1904
2021-09-12 15:26:22.789516 1904
2021-09-12 15:26:22.795501 1907
2021-09-12 15:26:22.801510 1914
2021-09-12 15:26:22.807502 1920
2021-09-12 15:26:22.814450 1909
2021-09-12 15:26:22.820433 1897
2021-09-12 15:26:22.826419 1895
2021-09-12 15:26:22.833399 1897
2021-09-12 15:26:22.839392 1892
2021-09-12 15:26:22.845366 1904
2021-09-12 15:26:22.851350 1906
2021-09-12 15:26:22.858331 1903
2021-09-12 15:26:22.864315 1899
2021-09-12 15:26:22.870299 1893
2021-09-12 15:26:22.876284 1918
2021-09-12 15:26:22.883265 1914
2021-09-12 15:26:22.889250 1905
2021-09-12 15:26:22.895233 1917
2021-09-12 15:26:22.901217 1904
2021-09-12 15:26:22.908198 1894
2021-09-12 15:26:22.914215 1903
2021-09-12 15:26:22.920193 1907
2021-09-12 15:26:22.927147 1917
2021-09-12 15:26:22.933132 1917
2021-09-12 15:26:22.939117 1873
2021-09-12 15:26:22.945100 1895
2021-09-12 15:26:22.952081 1898
2021-09-12 15:26:22.958066 1888
2021-09-12 15:26:22.964050 1904
2021-09-12 15:26:22.970033 1905
2021-09-12 15:26:22.977016 1920
2021-09-12 15:26:22.983032 1909
2021-09-12 15:26:22.989017 1887
2021-09-12 15:26:22.995963 1918
2021-09-12 15:26:23.001949 1910
2021-09-12 15:26:23.007932 1885
2021-09-12 15:26:23.013918 1890
2021-09-12 15:26:23.020934 1886
2021-09-12 15:26:23.026885 1904
2021-09-12 15:26:23.032867 1917
2021-09-12 15:26:23.038878 1909
2021-09-12 15:26:23.045831 1915
2021-09-12 15:26:23.051847 1931
2021-09-12 15:26:23.057800 1966
2021-09-12 15:26:23.063783 1984
2021-09-12 15:26:23.070765 1969
2021-09-12 15:26:23.076748 1982
2021-09-12 15:26:23.082732 1978
2021-09-12 15:26:23.089713 1957
2021-09-12 15:26:23.095696 1949
2021-09-12 15:26:23.101680 1925
2021-09-12 15:26:23.107664 1897
2021-09-12 15:26:23.114646 1888
2021-09-12 15:26:23.120630 1890
2021-09-12 15:26:23.126641 1888
2021-09-12 15:26:23.132599 1859
2021-09-12 15:26:23.139582 1856
2021-09-12 15:26:23.145595 1879
2021-09-12 15:26:23.151549 1887
2021-09-12 15:26:23.157563 1885
2021-09-12 15:26:23.164548 1878
2021-09-12 15:26:23.170529 1873
2021-09-12 15:26:23.176513 1887
2021-09-12 15:26:23.183462 1892
2021-09-12 15:26:23.189447 1857
2021-09-12 15:26:23.195431 1795
2021-09-12 15:26:23.201416 1765
2021-09-12 15:26:23.208396 1813
2021-09-12 15:26:23.214380 1825
2021-09-12 15:26:23.220366 1840
2021-09-12 15:26:23.226348 2277
2021-09-12 15:26:23.233362 2814
2021-09-12 15:26:23.239314 2763
2021-09-12 15:26:23.245297 2398
2021-09-12 15:26:23.251282 2203
2021-09-12 15:26:23.258264 1991
2021-09-12 15:26:23.264248 1850
2021-09-12 15:26:23.270231 1859
2021-09-12 15:26:23.277212 1865
2021-09-12 15:26:23.283195 1834
2021-09-12 15:26:23.289208 1807
2021-09-12 15:26:23.295190 1840
2021-09-12 15:26:23.301148 1854
2021-09-12 15:26:23.308129 1847
2021-09-12 15:26:23.314113 1852
2021-09-12 15:26:23.320098 1839
2021-09-12 15:26:23.327080 1856
2021-09-12 15:26:23.333065 1889
2021-09-12 15:26:23.339049 1883
2021-09-12 15:26:23.345032 1865
2021-09-12 15:26:23.352011 1839
2021-09-12 15:26:23.357995 1849
2021-09-12 15:26:23.363979 1859
2021-09-12 15:26:23.370961 1849
2021-09-12 15:26:23.376944 1865
2021-09-12 15:26:23.382929 1881
2021-09-12 15:26:23.388913 1872
2021-09-12 15:26:23.395894 1851
2021-09-12 15:26:23.401878 1840
2021-09-12 15:26:23.407862 1826
2021-09-12 15:26:23.413881 1829
2021-09-12 15:26:23.420860 1827
2021-09-12 15:26:23.426840 1855
2021-09-12 15:26:23.432830 1865
2021-09-12 15:26:23.438810 1833
2021-09-12 15:26:23.445761 1845
2021-09-12 15:26:23.451746 1856
2021-09-12 15:26:23.457730 1854
2021-09-12 15:26:23.464713 1859
2021-09-12 15:26:23.470695 1872
2021-09-12 15:26:23.476678 1889
2021-09-12 15:26:23.482689 1903
2021-09-12 15:26:23.489643 1904
2021-09-12 15:26:23.495661 1919
2021-09-12 15:26:23.501612 1904
2021-09-12 15:26:23.507596 1895
2021-09-12 15:26:23.514578 1904
2021-09-12 15:26:23.520563 1885
2021-09-12 15:26:23.526545 1887
2021-09-12 15:26:23.533103 1889
2021-09-12 15:26:23.539123 1889
2021-09-12 15:26:23.545100 1872
2021-09-12 15:26:23.552092 1872
2021-09-12 15:26:23.558070 1881
2021-09-12 15:26:23.564023 1893
2021-09-12 15:26:23.570036 1881
2021-09-12 15:26:23.577015 1889
2021-09-12 15:26:23.582978 1890
2021-09-12 15:26:23.588955 1872
2021-09-12 15:26:23.595936 1894
2021-09-12 15:26:23.601919 1890
2021-09-12 15:26:23.608412 1873
2021-09-12 15:26:23.614439 1883
2021-09-12 15:26:23.620418 1877
2021-09-12 15:26:23.626391 1882
2021-09-12 15:26:23.633387 1895
2021-09-12 15:26:23.639360 1890
2021-09-12 15:26:23.645314 1909
2021-09-12 15:26:23.651298 1910
2021-09-12 15:26:23.658279 1856
2021-09-12 15:26:23.664295 1878
2021-09-12 15:26:23.670281 1872
2021-09-12 15:26:23.677228 1882
2021-09-12 15:26:23.683213 1895
2021-09-12 15:26:23.689230 1875
2021-09-12 15:26:23.695181 1904
2021-09-12 15:26:23.702162 1919
2021-09-12 15:26:23.708175 1902
2021-09-12 15:26:23.714131 1872
2021-09-12 15:26:23.720114 1872
2021-09-12 15:26:23.727095 1877
2021-09-12 15:26:23.733143 1893
2021-09-12 15:26:23.739129 1907
2021-09-12 15:26:23.745084 1920
2021-09-12 15:26:23.752064 1883
2021-09-12 15:26:23.758080 1887
2021-09-12 15:26:23.764063 1934
2021-09-12 15:26:23.771013 1954
2021-09-12 15:26:23.776999 1971
2021-09-12 15:26:23.782980 1984
2021-09-12 15:26:23.788966 1971
2021-09-12 15:26:23.794986 1968
2021-09-12 15:26:23.801971 1951
2021-09-12 15:26:23.807915 1944
2021-09-12 15:26:23.813900 1941
2021-09-12 15:26:23.820881 1904
2021-09-12 15:26:23.826865 1871
2021-09-12 15:26:23.832841 1859
2021-09-12 15:26:23.839820 1862
2021-09-12 15:26:23.845803 1887
2021-09-12 15:26:23.851788 1873
2021-09-12 15:26:23.857771 1867
2021-09-12 15:26:23.863755 1875
2021-09-12 15:26:23.870737 1865
2021-09-12 15:26:23.876721 1867
2021-09-12 15:26:23.882704 1875
2021-09-12 15:26:23.889686 1868
2021-09-12 15:26:23.895670 1877
2021-09-12 15:26:23.901654 1885
2021-09-12 15:26:23.907638 1865
2021-09-12 15:26:23.914619 1805
2021-09-12 15:26:23.920603 1763
2021-09-12 15:26:23.926587 1831
2021-09-12 15:26:23.932571 1829
2021-09-12 15:26:23.939585 1890
2021-09-12 15:26:23.945568 2395
2021-09-12 15:26:23.951522 2760
2021-09-12 15:26:23.958505 2629
2021-09-12 15:26:23.964487 2350
2021-09-12 15:26:23.970471 2150
2021-09-12 15:26:23.976457 1969
2021-09-12 15:26:23.983435 1867
2021-09-12 15:26:23.989448 1856
2021-09-12 15:26:23.995437 1868
2021-09-12 15:26:24.001391 1813
2021-09-12 15:26:24.008370 1798
2021-09-12 15:26:24.014388 1837
2021-09-12 15:26:24.020339 1872
2021-09-12 15:26:24.027319 1884
2021-09-12 15:26:24.033340 1878
2021-09-12 15:26:24.039324 1866
2021-09-12 15:26:24.045339 1863
2021-09-12 15:26:24.052293 1859
2021-09-12 15:26:24.058278 1868
2021-09-12 15:26:24.064262 1872
2021-09-12 15:26:24.070245 1866
2021-09-12 15:26:24.077226 1875
2021-09-12 15:26:24.083211 1901
2021-09-12 15:26:24.089194 1872
2021-09-12 15:26:24.095175 1862
2021-09-12 15:26:24.102159 1874
2021-09-12 15:26:24.108144 1879
2021-09-12 15:26:24.114128 1877
2021-09-12 15:26:24.120113 1857
2021-09-12 15:26:24.127093 1861
2021-09-12 15:26:24.132612 1891
2021-09-12 15:26:24.139578 1903
2021-09-12 15:26:24.145564 1865
2021-09-12 15:26:24.151544 1840
2021-09-12 15:26:24.157526 1842
2021-09-12 15:26:24.164507 1855
2021-09-12 15:26:24.170492 1843
2021-09-12 15:26:24.176476 1875
2021-09-12 15:26:24.183502 1906
2021-09-12 15:26:24.189479 1904
2021-09-12 15:26:24.195428 1917
2021-09-12 15:26:24.201409 1915
2021-09-12 15:26:24.208391 1898
2021-09-12 15:26:24.214375 1898
2021-09-12 15:26:24.220358 1891
2021-09-12 15:26:24.226373 1885
2021-09-12 15:26:24.232914 1897
2021-09-12 15:26:24.239884 1879
2021-09-12 15:26:24.245867 1872
2021-09-12 15:26:24.251883 1874
2021-09-12 15:26:24.257874 1871
2021-09-12 15:26:24.263853 1869
2021-09-12 15:26:24.270834 1872
2021-09-12 15:26:24.276784 1883
2021-09-12 15:26:24.282768 1898
2021-09-12 15:26:24.289750 1885
2021-09-12 15:26:24.295766 1878
2021-09-12 15:26:24.301756 1879
2021-09-12 15:26:24.307703 1885
2021-09-12 15:26:24.314685 1903
2021-09-12 15:26:24.320667 1897
2021-09-12 15:26:24.326661 1884
2021-09-12 15:26:24.333632 1879
2021-09-12 15:26:24.339618 1874
2021-09-12 15:26:24.345601 1870
2021-09-12 15:26:24.351585 1872
2021-09-12 15:26:24.358566 1893
2021-09-12 15:26:24.364590 1899
2021-09-12 15:26:24.370570 1871
2021-09-12 15:26:24.376552 1855
2021-09-12 15:26:24.383534 1862
2021-09-12 15:26:24.389519 1879
2021-09-12 15:26:24.395507 1895
2021-09-12 15:26:24.401486 1886
2021-09-12 15:26:24.408469 1871
2021-09-12 15:26:24.414450 1870
2021-09-12 15:26:24.420435 1889
2021-09-12 15:26:24.426418 1874
2021-09-12 15:26:24.433400 1878
2021-09-12 15:26:24.439384 1875
2021-09-12 15:26:24.445368 1881
2021-09-12 15:26:24.451354 1898
2021-09-12 15:26:24.458334 1909
2021-09-12 15:26:24.464317 1889
2021-09-12 15:26:24.470301 1873
2021-09-12 15:26:24.476285 1885
2021-09-12 15:26:24.483266 1895
2021-09-12 15:26:24.489251 1899
2021-09-12 15:26:24.495235 1909
2021-09-12 15:26:24.502216 1936
2021-09-12 15:26:24.508205 1955
2021-09-12 15:26:24.514190 1959
2021-09-12 15:26:24.520827 1968
2021-09-12 15:26:24.526808 1949
2021-09-12 15:26:24.532790 1927
2021-09-12 15:26:24.539772 1911
2021-09-12 15:26:24.545760 1915
2021-09-12 15:26:24.551742 1905
2021-09-12 15:26:24.557725 1866
2021-09-12 15:26:24.564705 1854
2021-09-12 15:26:24.570693 1854
2021-09-12 15:26:24.576708 1855
2021-09-12 15:26:24.583656 1855
2021-09-12 15:26:24.589641 1856
2021-09-12 15:26:24.595623 1858
2021-09-12 15:26:24.601633 1861
2021-09-12 15:26:24.608587 1856
2021-09-12 15:26:24.614575 1867
2021-09-12 15:26:24.620629 1849
2021-09-12 15:26:24.626542 1830
2021-09-12 15:26:24.632524 1861
2021-09-12 15:26:24.639505 1857
2021-09-12 15:26:24.645489 1757
2021-09-12 15:26:24.652021 1745
