2021-09-14 15:42:29.540687 2149
2021-09-14 15:42:29.541682 2123
2021-09-14 15:42:29.542679 2099
2021-09-14 15:42:29.543676 2080
2021-09-14 15:42:29.543676 2069
2021-09-14 15:42:29.544673 2067
2021-09-14 15:42:29.545670 2058
2021-09-14 15:42:29.546668 2031
2021-09-14 15:42:29.547669 2047
2021-09-14 15:42:29.548664 2047
2021-09-14 15:42:29.548664 2029
2021-09-14 15:42:29.550661 2038
2021-09-14 15:42:29.551659 2039
2021-09-14 15:42:29.552653 2056
2021-09-14 15:42:29.553650 2032
2021-09-14 15:42:29.554652 2029
2021-09-14 15:42:29.555645 2030
2021-09-14 15:42:29.556643 2026
2021-09-14 15:42:29.557639 2019
2021-09-14 15:42:29.558637 2021
2021-09-14 15:42:29.559634 2015
2021-09-14 15:42:29.559634 2003
2021-09-14 15:42:29.560634 2008
2021-09-14 15:42:29.561628 2039
2021-09-14 15:42:29.562629 2044
2021-09-14 15:42:29.563668 2055
2021-09-14 15:42:29.564620 2128
2021-09-14 15:42:29.565621 2129
2021-09-14 15:42:29.566623 2142
2021-09-14 15:42:29.567619 2099
2021-09-14 15:42:29.568614 2091
2021-09-14 15:42:29.569612 2034
2021-09-14 15:42:29.570605 1995
2021-09-14 15:42:29.571602 2001
2021-09-14 15:42:29.571602 1990
2021-09-14 15:42:29.572602 1985
2021-09-14 15:42:29.573601 2001
2021-09-14 15:42:29.574592 2010
2021-09-14 15:42:29.574592 2014
2021-09-14 15:42:29.575590 2023
2021-09-14 15:42:29.575590 2013
2021-09-14 15:42:29.575590 1983
2021-09-14 15:42:29.576587 2168
2021-09-14 15:42:29.576587 2397
2021-09-14 15:42:29.576587 3203
2021-09-14 15:42:29.577585 2795
2021-09-14 15:42:29.577585 2042
2021-09-14 15:42:29.578581 1746
2021-09-14 15:42:29.578581 1786
2021-09-14 15:42:29.578581 1936
2021-09-14 15:42:29.579578 1967
2021-09-14 15:42:29.579578 2000
2021-09-14 15:42:29.579578 2001
2021-09-14 15:42:29.579578 2010
2021-09-14 15:42:29.580576 2017
2021-09-14 15:42:29.580576 2023
2021-09-14 15:42:29.580576 2022
2021-09-14 15:42:29.580576 2014
2021-09-14 15:42:29.581573 2015
2021-09-14 15:42:29.581573 2000
2021-09-14 15:42:29.581573 2000
2021-09-14 15:42:29.581573 1998
2021-09-14 15:42:29.581573 1996
2021-09-14 15:42:29.581573 1997
2021-09-14 15:42:29.581573 2000
2021-09-14 15:42:29.582571 1989
2021-09-14 15:42:29.582571 1979
2021-09-14 15:42:29.582571 1957
2021-09-14 15:42:29.582571 1935
2021-09-14 15:42:29.583567 1905
2021-09-14 15:42:29.583567 1878
2021-09-14 15:42:29.583567 1830
2021-09-14 15:42:29.583567 1795
2021-09-14 15:42:29.583567 1773
2021-09-14 15:42:29.584566 1744
2021-09-14 15:42:29.584566 1741
2021-09-14 15:42:29.584566 1746
2021-09-14 15:42:29.584566 1732
2021-09-14 15:42:29.584566 1741
2021-09-14 15:42:29.584566 1748
2021-09-14 15:42:29.584566 1758
2021-09-14 15:42:29.585563 1762
2021-09-14 15:42:29.585563 1763
2021-09-14 15:42:29.585563 1765
2021-09-14 15:42:29.585563 1759
2021-09-14 15:42:29.585563 1754
2021-09-14 15:42:29.585563 1767
2021-09-14 15:42:29.585563 1764
2021-09-14 15:42:29.586560 1756
2021-09-14 15:42:29.586560 1750
2021-09-14 15:42:29.586560 1745
2021-09-14 15:42:29.586560 1742
2021-09-14 15:42:29.586560 1733
2021-09-14 15:42:29.586560 1730
2021-09-14 15:42:29.586560 1746
2021-09-14 15:42:29.587557 1767
2021-09-14 15:42:29.587557 1753
2021-09-14 15:42:29.587557 1776
2021-09-14 15:42:29.587557 1819
2021-09-14 15:42:29.587557 1785
2021-09-14 15:42:29.587557 1782
2021-09-14 15:42:29.587557 1748
2021-09-14 15:42:29.588556 1705
2021-09-14 15:42:29.588556 1647
2021-09-14 15:42:29.588556 1636
2021-09-14 15:42:29.588556 1632
2021-09-14 15:42:29.588556 1623
2021-09-14 15:42:29.589552 1616
2021-09-14 15:42:29.589552 1613
2021-09-14 15:42:29.589552 1616
2021-09-14 15:42:29.589552 1618
2021-09-14 15:42:29.589552 1622
2021-09-14 15:42:29.589552 1571
2021-09-14 15:42:29.590551 1617
2021-09-14 15:42:29.590551 1708
2021-09-14 15:42:29.590551 2113
2021-09-14 15:42:29.590551 2628
2021-09-14 15:42:29.591547 2026
2021-09-14 15:42:29.591547 1545
2021-09-14 15:42:29.591547 1278
2021-09-14 15:42:29.591547 1449
2021-09-14 15:42:29.591547 1522
2021-09-14 15:42:29.591547 1582
2021-09-14 15:42:29.592543 1615
2021-09-14 15:42:29.592543 1631
2021-09-14 15:42:29.592543 1643
2021-09-14 15:42:29.592543 1658
2021-09-14 15:42:29.592543 1658
2021-09-14 15:42:29.592543 1670
2021-09-14 15:42:29.592543 1685
2021-09-14 15:42:29.593541 1693
2021-09-14 15:42:29.593541 1698
2021-09-14 15:42:29.593541 1717
2021-09-14 15:42:29.593541 1728
2021-09-14 15:42:29.593541 1753
2021-09-14 15:42:29.593541 1775
2021-09-14 15:42:29.593541 1779
2021-09-14 15:42:29.594538 1790
2021-09-14 15:42:29.594538 1760
2021-09-14 15:42:29.594538 1799
2021-09-14 15:42:29.594538 1785
2021-09-14 15:42:29.594538 1776
2021-09-14 15:42:29.594538 1744
2021-09-14 15:42:29.595537 1724
2021-09-14 15:42:29.595537 1697
2021-09-14 15:42:29.595537 1680
2021-09-14 15:42:29.595537 1668
2021-09-14 15:42:29.595537 1654
2021-09-14 15:42:29.596533 1648
2021-09-14 15:42:29.596533 1659
2021-09-14 15:42:29.596533 1663
2021-09-14 15:42:29.596533 1666
2021-09-14 15:42:29.596533 1666
2021-09-14 15:42:29.597531 1677
2021-09-14 15:42:29.597531 1680
2021-09-14 15:42:29.597531 1684
2021-09-14 15:42:29.597531 1680
2021-09-14 15:42:29.597531 1681
2021-09-14 15:42:29.597531 1693
2021-09-14 15:42:29.598528 1689
2021-09-14 15:42:29.598528 1695
2021-09-14 15:42:29.598528 1701
2021-09-14 15:42:29.598528 1703
2021-09-14 15:42:29.598528 1710
2021-09-14 15:42:29.598528 1709
2021-09-14 15:42:29.598528 1716
2021-09-14 15:42:29.599525 1724
2021-09-14 15:42:29.599525 1722
2021-09-14 15:42:29.599525 1719
2021-09-14 15:42:29.599525 1723
2021-09-14 15:42:29.599525 1729
2021-09-14 15:42:29.599525 1733
2021-09-14 15:42:29.599525 1734
2021-09-14 15:42:29.599525 1744
2021-09-14 15:42:29.600522 1762
2021-09-14 15:42:29.600522 1788
2021-09-14 15:42:29.600522 1778
2021-09-14 15:42:29.600522 1822
2021-09-14 15:42:29.600522 1855
2021-09-14 15:42:29.600522 1845
2021-09-14 15:42:29.600522 1853
2021-09-14 15:42:29.601520 1825
2021-09-14 15:42:29.601520 1795
2021-09-14 15:42:29.601520 1735
2021-09-14 15:42:29.601520 1725
2021-09-14 15:42:29.601520 1727
2021-09-14 15:42:29.601520 1725
2021-09-14 15:42:29.602520 1730
2021-09-14 15:42:29.602520 1728
2021-09-14 15:42:29.602520 1730
2021-09-14 15:42:29.602520 1735
2021-09-14 15:42:29.602520 1735
2021-09-14 15:42:29.602520 1686
2021-09-14 15:42:29.603516 1743
2021-09-14 15:42:29.603516 1811
2021-09-14 15:42:29.603516 2199
2021-09-14 15:42:29.603516 2751
2021-09-14 15:42:29.604514 2192
2021-09-14 15:42:29.604514 1707
2021-09-14 15:42:29.604514 1421
2021-09-14 15:42:29.604514 1565
2021-09-14 15:42:29.604514 1665
2021-09-14 15:42:29.605510 1710
2021-09-14 15:42:29.605510 1745
2021-09-14 15:42:29.605510 1769
2021-09-14 15:42:29.605510 1790
2021-09-14 15:42:29.605510 1799
2021-09-14 15:42:29.605510 1807
2021-09-14 15:42:29.606507 1820
2021-09-14 15:42:29.606507 1837
2021-09-14 15:42:29.606507 1840
2021-09-14 15:42:29.606507 1856
2021-09-14 15:42:29.606507 1866
2021-09-14 15:42:29.606507 1887
2021-09-14 15:42:29.606507 1898
2021-09-14 15:42:29.607503 1923
2021-09-14 15:42:29.607503 1946
2021-09-14 15:42:29.607503 1950
2021-09-14 15:42:29.607503 1950
2021-09-14 15:42:29.607503 1951
2021-09-14 15:42:29.607503 1951
2021-09-14 15:42:29.608500 1939
2021-09-14 15:42:29.608500 1922
2021-09-14 15:42:29.608500 1902
2021-09-14 15:42:29.608500 1871
2021-09-14 15:42:29.608500 1853
2021-09-14 15:42:29.608500 1840
2021-09-14 15:42:29.609499 1831
2021-09-14 15:42:29.609499 1824
2021-09-14 15:42:29.609499 1830
2021-09-14 15:42:29.609499 1826
2021-09-14 15:42:29.609499 1826
2021-09-14 15:42:29.609499 1838
2021-09-14 15:42:29.610495 1827
2021-09-14 15:42:29.610495 1829
2021-09-14 15:42:29.610495 1834
2021-09-14 15:42:29.610495 1829
2021-09-14 15:42:29.610495 1829
2021-09-14 15:42:29.610495 1837
2021-09-14 15:42:29.611495 1831
2021-09-14 15:42:29.611495 1843
2021-09-14 15:42:29.611495 1839
2021-09-14 15:42:29.611495 1845
2021-09-14 15:42:29.611495 1836
2021-09-14 15:42:29.611495 1841
2021-09-14 15:42:29.612491 1849
2021-09-14 15:42:29.612491 1854
2021-09-14 15:42:29.612491 1849
2021-09-14 15:42:29.612491 1851
2021-09-14 15:42:29.612491 1856
2021-09-14 15:42:29.612491 1867
2021-09-14 15:42:29.613487 1858
2021-09-14 15:42:29.613487 1865
2021-09-14 15:42:29.613487 1860
2021-09-14 15:42:29.613487 1858
2021-09-14 15:42:29.613487 1872
2021-09-14 15:42:29.613487 1871
2021-09-14 15:42:29.613487 1887
2021-09-14 15:42:29.613487 1919
2021-09-14 15:42:29.614485 1909
2021-09-14 15:42:29.614485 1929
2021-09-14 15:42:29.614485 1970
2021-09-14 15:42:29.614485 1965
2021-09-14 15:42:29.614485 1956
2021-09-14 15:42:29.614485 1934
2021-09-14 15:42:29.614485 1913
2021-09-14 15:42:29.615482 1865
2021-09-14 15:42:29.615482 1827
2021-09-14 15:42:29.615482 1823
2021-09-14 15:42:29.615482 1815
2021-09-14 15:42:29.615482 1837
2021-09-14 15:42:29.615482 1833
2021-09-14 15:42:29.616480 1840
2021-09-14 15:42:29.616480 1840
2021-09-14 15:42:29.616480 1834
2021-09-14 15:42:29.616480 1808
2021-09-14 15:42:29.616480 1799
2021-09-14 15:42:29.616480 1924
2021-09-14 15:42:29.617477 2169
2021-09-14 15:42:29.617477 2822
2021-09-14 15:42:29.617477 2381
2021-09-14 15:42:29.617477 1790
2021-09-14 15:42:29.617477 1535
2021-09-14 15:42:29.617477 1584
2021-09-14 15:42:29.618476 1729
2021-09-14 15:42:29.618476 1771
2021-09-14 15:42:29.618476 1840
2021-09-14 15:42:29.618476 1867
2021-09-14 15:42:29.618476 1881
2021-09-14 15:42:29.618476 1895
2021-09-14 15:42:29.619472 1899
2021-09-14 15:42:29.619472 1911
2021-09-14 15:42:29.619472 1922
2021-09-14 15:42:29.619472 1929
2021-09-14 15:42:29.619472 1938
2021-09-14 15:42:29.619472 1950
2021-09-14 15:42:29.619472 1966
2021-09-14 15:42:29.620468 1986
2021-09-14 15:42:29.620468 2002
2021-09-14 15:42:29.620468 2015
2021-09-14 15:42:29.620468 2022
2021-09-14 15:42:29.620468 2013
2021-09-14 15:42:29.620468 2007
2021-09-14 15:42:29.620468 2000
2021-09-14 15:42:29.620468 1991
2021-09-14 15:42:29.621466 1978
2021-09-14 15:42:29.621466 1944
2021-09-14 15:42:29.621466 1911
2021-09-14 15:42:29.621466 1886
2021-09-14 15:42:29.621466 1872
2021-09-14 15:42:29.621466 1865
2021-09-14 15:42:29.621466 1857
2021-09-14 15:42:29.622464 1863
2021-09-14 15:42:29.622464 1864
2021-09-14 15:42:29.622464 1853
2021-09-14 15:42:29.622464 1868
2021-09-14 15:42:29.622464 1871
2021-09-14 15:42:29.623464 1863
2021-09-14 15:42:29.623464 1868
2021-09-14 15:42:29.623464 1869
2021-09-14 15:42:29.623464 1874
2021-09-14 15:42:29.623464 1869
2021-09-14 15:42:29.623464 1875
2021-09-14 15:42:29.624459 1872
2021-09-14 15:42:29.624459 1872
2021-09-14 15:42:29.624459 1875
2021-09-14 15:42:29.624459 1872
2021-09-14 15:42:29.624459 1867
2021-09-14 15:42:29.624459 1874
2021-09-14 15:42:29.625457 1872
2021-09-14 15:42:29.625457 1879
2021-09-14 15:42:29.625457 1874
2021-09-14 15:42:29.625457 1885
2021-09-14 15:42:29.625457 1878
2021-09-14 15:42:29.625457 1885
2021-09-14 15:42:29.626453 1881
2021-09-14 15:42:29.626453 1883
2021-09-14 15:42:29.626453 1925
2021-09-14 15:42:29.626453 1945
2021-09-14 15:42:29.626453 1922
2021-09-14 15:42:29.626453 1965
2021-09-14 15:42:29.626453 1975
2021-09-14 15:42:29.627450 1983
2021-09-14 15:42:29.627450 1968
2021-09-14 15:42:29.627450 1952
2021-09-14 15:42:29.627450 1906
2021-09-14 15:42:29.627450 1872
2021-09-14 15:42:29.627450 1847
2021-09-14 15:42:29.627450 1860
2021-09-14 15:42:29.628448 1845
2021-09-14 15:42:29.628448 1861
2021-09-14 15:42:29.628448 1863
2021-09-14 15:42:29.628448 1863
2021-09-14 15:42:29.628448 1858
2021-09-14 15:42:29.628448 1861
2021-09-14 15:42:29.628448 1799
2021-09-14 15:42:29.629444 1886
2021-09-14 15:42:29.629444 1968
2021-09-14 15:42:29.629444 2495
2021-09-14 15:42:29.629444 2736
2021-09-14 15:42:29.629444 1995
2021-09-14 15:42:29.629444 1697
2021-09-14 15:42:29.630444 1520
2021-09-14 15:42:29.630444 1659
2021-09-14 15:42:29.630444 1782
2021-09-14 15:42:29.630444 1833
2021-09-14 15:42:29.630444 1872
2021-09-14 15:42:29.630444 1887
2021-09-14 15:42:29.631440 1903
2021-09-14 15:42:29.631440 1909
2021-09-14 15:42:29.631440 1926
2021-09-14 15:42:29.631440 1931
2021-09-14 15:42:29.631440 1940
2021-09-14 15:42:29.631440 1957
2021-09-14 15:42:29.632439 1963
2021-09-14 15:42:29.632439 1983
2021-09-14 15:42:29.632439 1999
2021-09-14 15:42:29.632439 2016
2021-09-14 15:42:29.632439 2055
2021-09-14 15:42:29.632439 2062
2021-09-14 15:42:29.632439 2061
2021-09-14 15:42:29.633435 2045
2021-09-14 15:42:29.633435 2032
2021-09-14 15:42:29.633435 2021
2021-09-14 15:42:29.633435 2007
2021-09-14 15:42:29.633435 1968
2021-09-14 15:42:29.633435 1936
2021-09-14 15:42:29.633435 1915
2021-09-14 15:42:29.634431 1890
2021-09-14 15:42:29.634431 1872
2021-09-14 15:42:29.634431 1866
2021-09-14 15:42:29.634431 1861
2021-09-14 15:42:29.634431 1858
2021-09-14 15:42:29.634431 1854
2021-09-14 15:42:29.634431 1866
2021-09-14 15:42:29.634431 1867
2021-09-14 15:42:29.635429 1867
2021-09-14 15:42:29.635429 1881
2021-09-14 15:42:29.635429 1861
2021-09-14 15:42:29.635429 1877
2021-09-14 15:42:29.635429 1882
2021-09-14 15:42:29.641413 1878
2021-09-14 15:42:29.651390 1874
2021-09-14 15:42:29.661364 1872
2021-09-14 15:42:29.671332 1873
2021-09-14 15:42:29.681306 1872
2021-09-14 15:42:29.691285 1869
2021-09-14 15:42:29.701409 1873
2021-09-14 15:42:29.711330 1885
2021-09-14 15:42:29.721300 1887
2021-09-14 15:42:29.731412 1879
2021-09-14 15:42:29.741497 1876
2021-09-14 15:42:29.751470 1877
2021-09-14 15:42:29.761446 1880
2021-09-14 15:42:29.771418 1877
2021-09-14 15:42:29.781394 1883
2021-09-14 15:42:29.791363 1876
2021-09-14 15:42:29.801477 1878
2021-09-14 15:42:29.811414 1883
2021-09-14 15:42:29.821381 1909
2021-09-14 15:42:29.831355 1927
2021-09-14 15:42:29.841330 1926
2021-09-14 15:42:29.851302 1958
2021-09-14 15:42:29.861282 1983
2021-09-14 15:42:29.871255 1975
2021-09-14 15:42:29.881261 1961
2021-09-14 15:42:29.891195 1937
2021-09-14 15:42:29.902166 1905
2021-09-14 15:42:29.912139 1858
2021-09-14 15:42:29.921153 1840
2021-09-14 15:42:29.932085 1847
2021-09-14 15:42:29.942062 1845
2021-09-14 15:42:29.952032 1840
2021-09-14 15:42:29.962005 1850
2021-09-14 15:42:29.971980 1846
2021-09-14 15:42:29.981953 1850
2021-09-14 15:42:29.991928 1840
2021-09-14 15:42:30.001900 1776
2021-09-14 15:42:30.011873 1902
2021-09-14 15:42:30.021846 1968
2021-09-14 15:42:30.031819 2575
2021-09-14 15:42:30.041793 2789
2021-09-14 15:42:30.051767 2053
2021-09-14 15:42:30.061746 1675
2021-09-14 15:42:30.071712 1529
2021-09-14 15:42:30.081686 1686
2021-09-14 15:42:30.091659 1758
2021-09-14 15:42:30.101632 1807
2021-09-14 15:42:30.111605 1836
2021-09-14 15:42:30.121595 1843
2021-09-14 15:42:30.131583 1855
2021-09-14 15:42:30.141563 1865
2021-09-14 15:42:30.151538 1867
2021-09-14 15:42:30.161501 1882
2021-09-14 15:42:30.171445 1891
2021-09-14 15:42:30.181417 1899
2021-09-14 15:42:30.191390 1915
2021-09-14 15:42:30.201363 1925
2021-09-14 15:42:30.211414 1936
2021-09-14 15:42:30.221314 1955
2021-09-14 15:42:30.231285 1981
2021-09-14 15:42:30.241261 1997
2021-09-14 15:42:30.251231 2000
2021-09-14 15:42:30.261343 1994
2021-09-14 15:42:30.271176 1990
2021-09-14 15:42:30.281182 1984
2021-09-14 15:42:30.291159 1969
2021-09-14 15:42:30.301097 1938
2021-09-14 15:42:30.311073 1907
2021-09-14 15:42:30.321078 1885
2021-09-14 15:42:30.332020 1861
2021-09-14 15:42:30.341023 1854
2021-09-14 15:42:30.350991 1840
2021-09-14 15:42:30.361937 1840
2021-09-14 15:42:30.370943 1839
2021-09-14 15:42:30.380885 1839
2021-09-14 15:42:30.391853 1843
2021-09-14 15:42:30.401827 1838
2021-09-14 15:42:30.410803 1840
2021-09-14 15:42:30.421776 1843
2021-09-14 15:42:30.431746 1840
2021-09-14 15:42:30.441720 1846
2021-09-14 15:42:30.451695 1854
2021-09-14 15:42:30.461667 1854
2021-09-14 15:42:30.471641 1855
2021-09-14 15:42:30.481613 1854
2021-09-14 15:42:30.491592 1851
2021-09-14 15:42:30.501580 1853
2021-09-14 15:42:30.511538 1851
2021-09-14 15:42:30.521561 1859
2021-09-14 15:42:30.531480 1856
2021-09-14 15:42:30.541455 1866
2021-09-14 15:42:30.551459 1869
2021-09-14 15:42:30.561402 1858
2021-09-14 15:42:30.571374 1861
2021-09-14 15:42:30.581351 1861
2021-09-14 15:42:30.591320 1865
2021-09-14 15:42:30.601299 1867
2021-09-14 15:42:30.611273 1872
2021-09-14 15:42:30.621244 1870
2021-09-14 15:42:30.631215 1869
2021-09-14 15:42:30.641192 1874
2021-09-14 15:42:30.651163 1872
2021-09-14 15:42:30.661206 1872
2021-09-14 15:42:30.671110 1878
2021-09-14 15:42:30.681086 1903
2021-09-14 15:42:30.691129 1913
2021-09-14 15:42:30.701187 1911
2021-09-14 15:42:30.711162 1937
2021-09-14 15:42:30.721227 1968
2021-09-14 15:42:30.731242 1971
2021-09-14 15:42:30.741296 1934
2021-09-14 15:42:30.751242 1919
2021-09-14 15:42:30.761214 1883
2021-09-14 15:42:30.771184 1855
2021-09-14 15:42:30.781161 1836
2021-09-14 15:42:30.791131 1831
2021-09-14 15:42:30.801188 1825
2021-09-14 15:42:30.811118 1824
2021-09-14 15:42:30.821093 1835
2021-09-14 15:42:30.831062 1832
2021-09-14 15:42:30.841073 1835
2021-09-14 15:42:30.851054 1831
2021-09-14 15:42:30.861037 1769
2021-09-14 15:42:30.871014 1893
2021-09-14 15:42:30.880985 1951
2021-09-14 15:42:30.890956 2576
2021-09-14 15:42:30.900931 2814
2021-09-14 15:42:30.910904 2113
2021-09-14 15:42:30.920876 1680
2021-09-14 15:42:30.931848 1535
2021-09-14 15:42:30.940823 1689
2021-09-14 15:42:30.950797 1747
2021-09-14 15:42:30.961767 1789
2021-09-14 15:42:30.971741 1824
2021-09-14 15:42:30.981714 1839
2021-09-14 15:42:30.991689 1855
2021-09-14 15:42:31.001660 1856
2021-09-14 15:42:31.011634 1872
2021-09-14 15:42:31.021609 1877
2021-09-14 15:42:31.031580 1882
2021-09-14 15:42:31.041554 1885
2021-09-14 15:42:31.051528 1903
2021-09-14 15:42:31.061501 1909
2021-09-14 15:42:31.071473 1929
2021-09-14 15:42:31.081449 1949
2021-09-14 15:42:31.091426 1968
2021-09-14 15:42:31.101397 1978
2021-09-14 15:42:31.111367 1981
2021-09-14 15:42:31.121340 1983
2021-09-14 15:42:31.131315 1984
2021-09-14 15:42:31.141292 1970
2021-09-14 15:42:31.151264 1968
2021-09-14 15:42:31.161302 1956
2021-09-14 15:42:31.171211 1925
2021-09-14 15:42:31.181271 1895
2021-09-14 15:42:31.191240 1879
2021-09-14 15:42:31.201214 1861
2021-09-14 15:42:31.211186 1854
2021-09-14 15:42:31.221165 1856
2021-09-14 15:42:31.231133 1851
2021-09-14 15:42:31.241107 1853
2021-09-14 15:42:31.251080 1858
2021-09-14 15:42:31.261054 1862
2021-09-14 15:42:31.271028 1855
2021-09-14 15:42:31.280999 1865
2021-09-14 15:42:31.290975 1870
2021-09-14 15:42:31.300947 1872
2021-09-14 15:42:31.310920 1868
2021-09-14 15:42:31.320895 1877
2021-09-14 15:42:31.330899 1883
2021-09-14 15:42:31.341839 1869
2021-09-14 15:42:31.350813 1869
2021-09-14 15:42:31.360787 1872
2021-09-14 15:42:31.370760 1865
2021-09-14 15:42:31.380735 1879
2021-09-14 15:42:31.390707 1872
2021-09-14 15:42:31.401681 1872
2021-09-14 15:42:31.411650 1879
2021-09-14 15:42:31.421624 1876
2021-09-14 15:42:31.431598 1879
2021-09-14 15:42:31.441570 1885
2021-09-14 15:42:31.451543 1882
2021-09-14 15:42:31.461522 1877
2021-09-14 15:42:31.471491 1885
2021-09-14 15:42:31.481463 1885
2021-09-14 15:42:31.491437 1898
2021-09-14 15:42:31.501414 1920
2021-09-14 15:42:31.511388 1930
2021-09-14 15:42:31.521357 1969
2021-09-14 15:42:31.531334 1958
2021-09-14 15:42:31.541305 1979
2021-09-14 15:42:31.551281 1970
2021-09-14 15:42:31.561251 1949
2021-09-14 15:42:31.571228 1925
2021-09-14 15:42:31.581292 1889
2021-09-14 15:42:31.591265 1835
2021-09-14 15:42:31.601386 1823
2021-09-14 15:42:31.611310 1817
2021-09-14 15:42:31.621360 1819
2021-09-14 15:42:31.631257 1828
2021-09-14 15:42:31.641234 1815
2021-09-14 15:42:31.651207 1816
2021-09-14 15:42:31.661177 1825
2021-09-14 15:42:31.671275 1821
2021-09-14 15:42:31.681307 1745
2021-09-14 15:42:31.691208 1872
2021-09-14 15:42:31.701181 1938
2021-09-14 15:42:31.711159 2558
2021-09-14 15:42:31.721128 2713
2021-09-14 15:42:31.731134 1998
2021-09-14 15:42:31.741108 1643
2021-09-14 15:42:31.751308 1481
2021-09-14 15:42:31.761381 1662
2021-09-14 15:42:31.771432 1749
2021-09-14 15:42:31.781334 1788
2021-09-14 15:42:31.791305 1840
2021-09-14 15:42:31.801282 1849
2021-09-14 15:42:31.811347 1863
2021-09-14 15:42:31.821320 1878
2021-09-14 15:42:31.831293 1891
2021-09-14 15:42:31.841267 1895
2021-09-14 15:42:31.851243 1907
2021-09-14 15:42:31.861249 1922
2021-09-14 15:42:31.871229 1943
2021-09-14 15:42:31.881200 1937
2021-09-14 15:42:31.891177 1966
2021-09-14 15:42:31.901243 1972
2021-09-14 15:42:31.911383 2009
2021-09-14 15:42:31.921358 2016
2021-09-14 15:42:31.931337 2019
2021-09-14 15:42:31.941309 2015
2021-09-14 15:42:31.951279 2002
2021-09-14 15:42:31.961255 1997
2021-09-14 15:42:31.971347 1975
2021-09-14 15:42:31.981302 1951
2021-09-14 15:42:31.991277 1919
2021-09-14 15:42:32.001249 1893
2021-09-14 15:42:32.011259 1876
2021-09-14 15:42:32.021198 1870
2021-09-14 15:42:32.031197 1859
2021-09-14 15:42:32.041172 1856
2021-09-14 15:42:32.051118 1865
2021-09-14 15:42:32.061192 1871
2021-09-14 15:42:32.071214 1872
2021-09-14 15:42:32.081107 1872
2021-09-14 15:42:32.091080 1875
2021-09-14 15:42:32.101058 1867
2021-09-14 15:42:32.111027 1879
2021-09-14 15:42:32.121004 1886
2021-09-14 15:42:32.130975 1884
2021-09-14 15:42:32.140951 1879
2021-09-14 15:42:32.150921 1877
2021-09-14 15:42:32.160894 1893
2021-09-14 15:42:32.171865 1887
2021-09-14 15:42:32.180841 1925
2021-09-14 15:42:32.190818 1883
2021-09-14 15:42:32.201786 1897
2021-09-14 15:42:32.211757 1904
2021-09-14 15:42:32.221731 1897
2021-09-14 15:42:32.231704 1904
2021-09-14 15:42:32.241678 1897
2021-09-14 15:42:32.251651 1903
2021-09-14 15:42:32.261624 1899
2021-09-14 15:42:32.271597 1903
2021-09-14 15:42:32.281613 1904
2021-09-14 15:42:32.291586 1902
2021-09-14 15:42:32.301559 1907
2021-09-14 15:42:32.311533 1903
2021-09-14 15:42:32.321506 1902
2021-09-14 15:42:32.331480 1902
2021-09-14 15:42:32.341470 1931
2021-09-14 15:42:32.351448 1945
2021-09-14 15:42:32.361417 1954
2021-09-14 15:42:32.371394 1973
2021-09-14 15:42:32.381398 1980
2021-09-14 15:42:32.391450 1994
2021-09-14 15:42:32.401345 1990
2021-09-14 15:42:32.411318 1963
2021-09-14 15:42:32.421296 1953
2021-09-14 15:42:32.431266 1907
2021-09-14 15:42:32.441346 1856
2021-09-14 15:42:32.451316 1849
2021-09-14 15:42:32.461441 1849
2021-09-14 15:42:32.471370 1846
2021-09-14 15:42:32.481348 1849
2021-09-14 15:42:32.491317 1855
2021-09-14 15:42:32.501290 1847
2021-09-14 15:42:32.511267 1862
2021-09-14 15:42:32.521236 1825
2021-09-14 15:42:32.531300 1813
2021-09-14 15:42:32.541273 1943
2021-09-14 15:42:32.551330 2208
2021-09-14 15:42:32.561257 2908
2021-09-14 15:42:32.571349 2512
2021-09-14 15:42:32.581325 1874
2021-09-14 15:42:32.591299 1591
2021-09-14 15:42:32.601276 1593
2021-09-14 15:42:32.611248 1744
2021-09-14 15:42:32.621375 1783
2021-09-14 15:42:32.631293 1835
2021-09-14 15:42:32.641359 1855
2021-09-14 15:42:32.651329 1864
2021-09-14 15:42:32.661413 1873
2021-09-14 15:42:32.671386 1890
2021-09-14 15:42:32.681363 1898
2021-09-14 15:42:32.691335 1901
2021-09-14 15:42:32.701360 1915
2021-09-14 15:42:32.711337 1931
2021-09-14 15:42:32.721255 1942
2021-09-14 15:42:32.731230 1950
2021-09-14 15:42:32.741200 1979
2021-09-14 15:42:32.751173 1997
2021-09-14 15:42:32.761150 2019
2021-09-14 15:42:32.771119 2028
2021-09-14 15:42:32.781097 2023
2021-09-14 15:42:32.791081 2015
2021-09-14 15:42:32.801057 2015
2021-09-14 15:42:32.811027 2005
2021-09-14 15:42:32.821004 1996
2021-09-14 15:42:32.830974 1959
2021-09-14 15:42:32.840947 1933
2021-09-14 15:42:32.850923 1910
2021-09-14 15:42:32.860892 1885
2021-09-14 15:42:32.870958 1877
2021-09-14 15:42:32.881872 1873
2021-09-14 15:42:32.890853 1872
2021-09-14 15:42:32.900822 1877
2021-09-14 15:42:32.910795 1872
2021-09-14 15:42:32.920772 1881
2021-09-14 15:42:32.931769 1875
2021-09-14 15:42:32.941742 1883
2021-09-14 15:42:32.950894 1887
2021-09-14 15:42:32.960867 1889
2021-09-14 15:42:32.971931 1887
2021-09-14 15:42:32.980910 1899
2021-09-14 15:42:32.990879 1889
2021-09-14 15:42:33.000858 1894
2021-09-14 15:42:33.010935 1887
2021-09-14 15:42:33.020904 1891
2021-09-14 15:42:33.030880 1885
2021-09-14 15:42:33.040852 1883
2021-09-14 15:42:33.051820 1892
2021-09-14 15:42:33.061795 1894
2021-09-14 15:42:33.071767 1891
2021-09-14 15:42:33.080920 1890
2021-09-14 15:42:33.090820 1884
2021-09-14 15:42:33.100942 1895
2021-09-14 15:42:33.110871 1895
2021-09-14 15:42:33.121841 1893
2021-09-14 15:42:33.131815 1901
2021-09-14 15:42:33.141788 1890
2021-09-14 15:42:33.151761 1892
2021-09-14 15:42:33.161847 1892
2021-09-14 15:42:33.171820 1904
2021-09-14 15:42:33.181794 1904
2021-09-14 15:42:33.191767 1901
2021-09-14 15:42:33.201740 1905
2021-09-14 15:42:33.211713 1901
2021-09-14 15:42:33.221688 1902
2021-09-14 15:42:33.231660 1904
2021-09-14 15:42:33.241633 1913
2021-09-14 15:42:33.251607 1938
2021-09-14 15:42:33.261597 1939
2021-09-14 15:42:33.271670 1969
2021-09-14 15:42:33.281666 1980
2021-09-14 15:42:33.291640 1975
2021-09-14 15:42:33.301613 1991
2021-09-14 15:42:33.311587 1987
2021-09-14 15:42:33.321580 1949
2021-09-14 15:42:33.331533 1924
2021-09-14 15:42:33.341506 1871
2021-09-14 15:42:33.351483 1856
2021-09-14 15:42:33.361454 1855
2021-09-14 15:42:33.371430 1846
2021-09-14 15:42:33.381400 1854
2021-09-14 15:42:33.391378 1845
2021-09-14 15:42:33.401346 1851
2021-09-14 15:42:33.411320 1857
2021-09-14 15:42:33.421296 1850
2021-09-14 15:42:33.431271 1780
2021-09-14 15:42:33.441243 1904
2021-09-14 15:42:33.451215 1963
2021-09-14 15:42:33.461190 2609
2021-09-14 15:42:33.471206 2848
2021-09-14 15:42:33.481184 2137
2021-09-14 15:42:33.491152 1701
2021-09-14 15:42:33.501131 1545
2021-09-14 15:42:33.511103 1711
2021-09-14 15:42:33.521073 1758
2021-09-14 15:42:33.531050 1802
2021-09-14 15:42:33.541020 1823
2021-09-14 15:42:33.550996 1841
2021-09-14 15:42:33.561964 1855
2021-09-14 15:42:33.570945 1857
2021-09-14 15:42:33.580917 1873
2021-09-14 15:42:33.590890 1889
2021-09-14 15:42:33.600863 1891
2021-09-14 15:42:33.610834 1898
2021-09-14 15:42:33.621803 1907
2021-09-14 15:42:33.631777 1926
2021-09-14 15:42:33.640757 1936
2021-09-14 15:42:33.650725 1963
2021-09-14 15:42:33.661696 1983
2021-09-14 15:42:33.671670 2002
2021-09-14 15:42:33.681746 2005
2021-09-14 15:42:33.690721 2000
2021-09-14 15:42:33.701692 2005
2021-09-14 15:42:33.711666 1990
2021-09-14 15:42:33.721639 1973
2021-09-14 15:42:33.731626 1964
2021-09-14 15:42:33.741601 1936
2021-09-14 15:42:33.751573 1911
2021-09-14 15:42:33.761566 1889
2021-09-14 15:42:33.771543 1873
2021-09-14 15:42:33.781614 1874
2021-09-14 15:42:33.791587 1863
2021-09-14 15:42:33.801636 1867
2021-09-14 15:42:33.811611 1862
2021-09-14 15:42:33.821583 1871
2021-09-14 15:42:33.831556 1862
2021-09-14 15:42:33.841557 1871
2021-09-14 15:42:33.851568 1872
2021-09-14 15:42:33.861542 1877
2021-09-14 15:42:33.871549 1887
2021-09-14 15:42:33.881526 1883
2021-09-14 15:42:33.891495 1887
2021-09-14 15:42:33.901470 1878
2021-09-14 15:42:33.911448 1886
2021-09-14 15:42:33.921450 1886
2021-09-14 15:42:33.931429 1885
2021-09-14 15:42:33.941401 1872
2021-09-14 15:42:33.951369 1882
2021-09-14 15:42:33.961348 1892
2021-09-14 15:42:33.971318 1891
2021-09-14 15:42:33.981295 1895
2021-09-14 15:42:33.991264 1890
2021-09-14 15:42:34.001238 1894
2021-09-14 15:42:34.011213 1894
2021-09-14 15:42:34.021294 1894
2021-09-14 15:42:34.031241 1894
2021-09-14 15:42:34.041213 1887
2021-09-14 15:42:34.051184 1882
2021-09-14 15:42:34.061158 1887
2021-09-14 15:42:34.071169 1888
2021-09-14 15:42:34.081137 1882
2021-09-14 15:42:34.091198 1883
2021-09-14 15:42:34.101174 1893
2021-09-14 15:42:34.111148 1884
2021-09-14 15:42:34.121218 1887
2021-09-14 15:42:34.131195 1884
2021-09-14 15:42:34.141168 1879
2021-09-14 15:42:34.151141 1878
2021-09-14 15:42:34.161114 1891
2021-09-14 15:42:34.171091 1902
2021-09-14 15:42:34.181061 1907
2021-09-14 15:42:34.191038 1921
2021-09-14 15:42:34.201008 1939
2021-09-14 15:42:34.211032 1963
2021-09-14 15:42:34.220966 1968
2021-09-14 15:42:34.230939 1977
2021-09-14 15:42:34.240909 1974
2021-09-14 15:42:34.250886 1947
2021-09-14 15:42:34.260854 1933
2021-09-14 15:42:34.270828 1878
2021-09-14 15:42:34.280805 1841
2021-09-14 15:42:34.291781 1849
2021-09-14 15:42:34.301753 1843
2021-09-14 15:42:34.311728 1841
2021-09-14 15:42:34.321700 1839
2021-09-14 15:42:34.330831 1840
2021-09-14 15:42:34.340759 1840
2021-09-14 15:42:34.350880 1841
2021-09-14 15:42:34.360809 1791
2021-09-14 15:42:34.370930 1819
2021-09-14 15:42:34.380859 1907
2021-09-14 15:42:34.390837 2288
2021-09-14 15:42:34.400806 2880
2021-09-14 15:42:34.410779 2314
2021-09-14 15:42:34.420756 1776
2021-09-14 15:42:34.431723 1546
2021-09-14 15:42:34.440703 1607
2021-09-14 15:42:34.450675 1730
2021-09-14 15:42:34.460785 1774
2021-09-14 15:42:34.471723 1810
2021-09-14 15:42:34.480791 1830
2021-09-14 15:42:34.490799 1844
2021-09-14 15:42:34.500744 1861
2021-09-14 15:42:34.511711 1863
2021-09-14 15:42:34.521684 1869
2021-09-14 15:42:34.530665 1893
2021-09-14 15:42:34.541632 1905
2021-09-14 15:42:34.551604 1909
2021-09-14 15:42:34.561726 1921
2021-09-14 15:42:34.570655 1947
2021-09-14 15:42:34.581626 1955
2021-09-14 15:42:34.590603 1972
2021-09-14 15:42:34.601667 1983
2021-09-14 15:42:34.611642 2001
2021-09-14 15:42:34.620690 1991
2021-09-14 15:42:34.631587 1987
2021-09-14 15:42:34.641561 1973
2021-09-14 15:42:34.651535 1970
2021-09-14 15:42:34.661507 1958
2021-09-14 15:42:34.671480 1929
2021-09-14 15:42:34.681454 1899
2021-09-14 15:42:34.691431 1874
2021-09-14 15:42:34.701440 1875
2021-09-14 15:42:34.711411 1846
2021-09-14 15:42:34.721385 1847
2021-09-14 15:42:34.731428 1854
2021-09-14 15:42:34.741376 1852
2021-09-14 15:42:34.751354 1835
2021-09-14 15:42:34.761326 1835
2021-09-14 15:42:34.771298 1829
2021-09-14 15:42:34.781273 1862
2021-09-14 15:42:34.791242 1869
2021-09-14 15:42:34.801220 1873
2021-09-14 15:42:34.811188 1871
2021-09-14 15:42:34.821212 1882
2021-09-14 15:42:34.831170 1877
2021-09-14 15:42:34.841143 1878
2021-09-14 15:42:34.851253 1873
2021-09-14 15:42:34.861182 1873
2021-09-14 15:42:34.871194 1869
2021-09-14 15:42:34.881172 1872
2021-09-14 15:42:34.891150 1872
2021-09-14 15:42:34.901120 1877
2021-09-14 15:42:34.911199 1881
2021-09-14 15:42:34.921179 1878
2021-09-14 15:42:34.931148 1886
2021-09-14 15:42:34.941125 1885
2021-09-14 15:42:34.951095 1881
2021-09-14 15:42:34.961072 1881
2021-09-14 15:42:34.971178 1878
2021-09-14 15:42:34.981121 1882
2021-09-14 15:42:34.991089 1885
2021-09-14 15:42:35.001064 1879
2021-09-14 15:42:35.011040 1886
2021-09-14 15:42:35.021010 1899
2021-09-14 15:42:35.030987 1921
2021-09-14 15:42:35.040957 1936
2021-09-14 15:42:35.051075 1953
2021-09-14 15:42:35.061005 1968
2021-09-14 15:42:35.071119 1969
2021-09-14 15:42:35.081055 1984
2021-09-14 15:42:35.091022 1987
2021-09-14 15:42:35.100998 1949
2021-09-14 15:42:35.110969 1935
2021-09-14 15:42:35.120945 1872
2021-09-14 15:42:35.130916 1856
2021-09-14 15:42:35.140989 1844
2021-09-14 15:42:35.151058 1851
2021-09-14 15:42:35.161065 1854
2021-09-14 15:42:35.171009 1851
2021-09-14 15:42:35.180977 1852
2021-09-14 15:42:35.190955 1849
2021-09-14 15:42:35.200924 1852
2021-09-14 15:42:35.210900 1790
2021-09-14 15:42:35.220870 1858
2021-09-14 15:42:35.230868 1936
2021-09-14 15:42:35.240817 2434
2021-09-14 15:42:35.250790 2899
2021-09-14 15:42:35.260769 2233
2021-09-14 15:42:35.270737 1759
2021-09-14 15:42:35.280713 1523
2021-09-14 15:42:35.290684 1647
2021-09-14 15:42:35.300657 1755
2021-09-14 15:42:35.310633 1805
2021-09-14 15:42:35.321602 1831
2021-09-14 15:42:35.331605 1847
2021-09-14 15:42:35.341548 1865
2021-09-14 15:42:35.351520 1872
2021-09-14 15:42:35.361494 1883
2021-09-14 15:42:35.371467 1904
2021-09-14 15:42:35.381562 1909
2021-09-14 15:42:35.391535 1919
2021-09-14 15:42:35.401508 1926
2021-09-14 15:42:35.411482 1942
2021-09-14 15:42:35.421455 1961
2021-09-14 15:42:35.431429 1977
2021-09-14 15:42:35.441402 1999
2021-09-14 15:42:35.451375 2013
2021-09-14 15:42:35.461357 2031
2021-09-14 15:42:35.471323 2025
2021-09-14 15:42:35.481300 2014
2021-09-14 15:42:35.491269 2011
2021-09-14 15:42:35.501242 2001
2021-09-14 15:42:35.511220 1973
2021-09-14 15:42:35.521188 1936
2021-09-14 15:42:35.531260 1920
2021-09-14 15:42:35.541189 1897
