2021-09-12 15:27:36.951330 1873
2021-09-12 15:27:36.958312 1926
2021-09-12 15:27:36.964295 1995
2021-09-12 15:27:36.970279 1942
2021-09-12 15:27:36.976262 1793
2021-09-12 15:27:36.983247 1875
2021-09-12 15:27:36.989231 1895
2021-09-12 15:27:36.995215 1890
2021-09-12 15:27:37.001196 1890
2021-09-12 15:27:37.008180 1883
2021-09-12 15:27:37.014161 1895
2021-09-12 15:27:37.020146 1935
2021-09-12 15:27:37.026130 1918
2021-09-12 15:27:37.033110 1891
2021-09-12 15:27:37.039096 1888
2021-09-12 15:27:37.045079 1950
2021-09-12 15:27:37.051065 2018
2021-09-12 15:27:37.058045 1995
2021-09-12 15:27:37.064028 1984
2021-09-12 15:27:37.070014 1955
2021-09-12 15:27:37.076514 1879
2021-09-12 15:27:37.082494 1867
2021-09-12 15:27:37.089476 1874
2021-09-12 15:27:37.095459 1920
2021-09-12 15:27:37.101446 1979
2021-09-12 15:27:37.107428 1938
2021-09-12 15:27:37.114409 1904
2021-09-12 15:27:37.120394 1894
2021-09-12 15:27:37.126378 2009
2021-09-12 15:27:37.133361 2086
2021-09-12 15:27:37.139356 2002
2021-09-12 15:27:37.145326 2009
2021-09-12 15:27:37.151312 2002
2021-09-12 15:27:37.157316 1930
2021-09-12 15:27:37.164277 1936
2021-09-12 15:27:37.170261 1953
2021-09-12 15:27:37.176246 1937
2021-09-12 15:27:37.183225 1921
2021-09-12 15:27:37.189209 1938
2021-09-12 15:27:37.195194 1904
2021-09-12 15:27:37.201177 1840
2021-09-12 15:27:37.208160 1862
2021-09-12 15:27:37.214143 1881
2021-09-12 15:27:37.220126 1865
2021-09-12 15:27:37.226114 1889
2021-09-12 15:27:37.233094 1910
2021-09-12 15:27:37.239077 1914
2021-09-12 15:27:37.245062 1901
2021-09-12 15:27:37.251050 1893
2021-09-12 15:27:37.258031 1871
2021-09-12 15:27:37.264017 1883
2021-09-12 15:27:37.270000 1827
2021-09-12 15:27:37.275983 1765
2021-09-12 15:27:37.282964 1744
2021-09-12 15:27:37.288947 1701
2021-09-12 15:27:37.294933 1809
2021-09-12 15:27:37.301913 2464
2021-09-12 15:27:37.307898 2959
2021-09-12 15:27:37.313882 2800
2021-09-12 15:27:37.320869 2365
2021-09-12 15:27:37.326847 2159
2021-09-12 15:27:37.332831 1982
2021-09-12 15:27:37.338819 1841
2021-09-12 15:27:37.345796 1797
2021-09-12 15:27:37.351299 1796
2021-09-12 15:27:37.358281 1787
2021-09-12 15:27:37.364270 1792
2021-09-12 15:27:37.370249 1802
2021-09-12 15:27:37.377230 1799
2021-09-12 15:27:37.383215 1815
2021-09-12 15:27:37.389200 1824
2021-09-12 15:27:37.395182 1829
2021-09-12 15:27:37.402165 1833
2021-09-12 15:27:37.408146 1819
2021-09-12 15:27:37.414163 1844
2021-09-12 15:27:37.420686 1843
2021-09-12 15:27:37.426667 1831
2021-09-12 15:27:37.432649 1808
2021-09-12 15:27:37.438636 1791
2021-09-12 15:27:37.445618 1780
2021-09-12 15:27:37.451298 1805
2021-09-12 15:27:37.457281 1824
2021-09-12 15:27:37.464265 1825
2021-09-12 15:27:37.470248 1814
2021-09-12 15:27:37.476233 1790
2021-09-12 15:27:37.483213 1807
2021-09-12 15:27:37.489199 1805
2021-09-12 15:27:37.495181 1789
2021-09-12 15:27:37.501164 1819
2021-09-12 15:27:37.508148 1831
2021-09-12 15:27:37.514129 1827
2021-09-12 15:27:37.520114 1808
2021-09-12 15:27:37.527096 1766
2021-09-12 15:27:37.533079 1805
2021-09-12 15:27:37.539065 1825
2021-09-12 15:27:37.545048 1831
2021-09-12 15:27:37.551549 1876
2021-09-12 15:27:37.557531 1885
2021-09-12 15:27:37.564512 1885
2021-09-12 15:27:37.570497 1877
2021-09-12 15:27:37.576481 1847
2021-09-12 15:27:37.583011 1873
2021-09-12 15:27:37.589475 1859
2021-09-12 15:27:37.595459 1865
2021-09-12 15:27:37.601445 1873
2021-09-12 15:27:37.607429 1882
2021-09-12 15:27:37.614408 1872
2021-09-12 15:27:37.620393 1854
2021-09-12 15:27:37.626377 1854
2021-09-12 15:27:37.633358 1868
2021-09-12 15:27:37.639348 1875
2021-09-12 15:27:37.645326 1887
2021-09-12 15:27:37.651831 1908
2021-09-12 15:27:37.657820 1887
2021-09-12 15:27:37.663800 1885
2021-09-12 15:27:37.670781 1898
2021-09-12 15:27:37.676765 1891
2021-09-12 15:27:37.682749 1893
2021-09-12 15:27:37.688733 1881
2021-09-12 15:27:37.695713 1877
2021-09-12 15:27:37.701699 1933
2021-09-12 15:27:37.707682 1949
2021-09-12 15:27:37.713666 1918
2021-09-12 15:27:37.720647 1920
2021-09-12 15:27:37.726636 1901
2021-09-12 15:27:37.732615 1914
2021-09-12 15:27:37.739596 1923
2021-09-12 15:27:37.745581 1904
2021-09-12 15:27:37.751078 1927
2021-09-12 15:27:37.758572 1939
2021-09-12 15:27:37.764560 1936
2021-09-12 15:27:37.770541 1932
2021-09-12 15:27:37.776523 1927
2021-09-12 15:27:37.782537 1943
2021-09-12 15:27:37.789518 1937
2021-09-12 15:27:37.795473 1939
2021-09-12 15:27:37.801456 1956
2021-09-12 15:27:37.807443 1907
2021-09-12 15:27:37.814423 1917
2021-09-12 15:27:37.820436 1969
2021-09-12 15:27:37.826392 2004
2021-09-12 15:27:37.832386 2018
2021-09-12 15:27:37.839355 2018
2021-09-12 15:27:37.845371 2025
2021-09-12 15:27:37.851323 2058
2021-09-12 15:27:37.857307 2007
2021-09-12 15:27:37.864290 1984
2021-09-12 15:27:37.870272 2005
2021-09-12 15:27:37.876258 1986
2021-09-12 15:27:37.882240 1978
2021-09-12 15:27:37.889224 1930
2021-09-12 15:27:37.896202 1918
2021-09-12 15:27:37.901264 1930
2021-09-12 15:27:37.907248 1936
2021-09-12 15:27:37.914230 1931
2021-09-12 15:27:37.920217 1933
2021-09-12 15:27:37.926201 1937
2021-09-12 15:27:37.933179 1943
2021-09-12 15:27:37.939162 1919
2021-09-12 15:27:37.945146 1914
2021-09-12 15:27:37.951130 1962
2021-09-12 15:27:37.958112 1968
2021-09-12 15:27:37.964098 1953
2021-09-12 15:27:37.970079 1883
2021-09-12 15:27:37.976064 1791
2021-09-12 15:27:37.983077 1887
2021-09-12 15:27:37.989028 1903
2021-09-12 15:27:37.995012 1894
2021-09-12 15:27:38.001060 2368
2021-09-12 15:27:38.007979 2906
2021-09-12 15:27:38.013962 2867
2021-09-12 15:27:38.019945 2506
2021-09-12 15:27:38.026926 2271
2021-09-12 15:27:38.032915 2123
2021-09-12 15:27:38.038895 1981
2021-09-12 15:27:38.044882 1955
2021-09-12 15:27:38.051860 1935
2021-09-12 15:27:38.057845 1877
2021-09-12 15:27:38.063830 1875
2021-09-12 15:27:38.069816 1919
2021-09-12 15:27:38.076797 1917
2021-09-12 15:27:38.082777 1936
2021-09-12 15:27:38.088765 1930
2021-09-12 15:27:38.094747 1897
2021-09-12 15:27:38.101878 1920
2021-09-12 15:27:38.107710 1925
2021-09-12 15:27:38.113697 1934
2021-09-12 15:27:38.120677 1941
2021-09-12 15:27:38.126661 1925
2021-09-12 15:27:38.132646 1923
2021-09-12 15:27:38.139627 1922
2021-09-12 15:27:38.145611 1925
2021-09-12 15:27:38.151594 1951
2021-09-12 15:27:38.157608 1936
2021-09-12 15:27:38.164561 1923
2021-09-12 15:27:38.170542 1936
2021-09-12 15:27:38.176528 1925
2021-09-12 15:27:38.182513 1905
2021-09-12 15:27:38.189493 1911
2021-09-12 15:27:38.195477 1909
2021-09-12 15:27:38.201461 1919
2021-09-12 15:27:38.207455 1901
2021-09-12 15:27:38.214425 1899
2021-09-12 15:27:38.220409 1917
2021-09-12 15:27:38.226394 1899
2021-09-12 15:27:38.232381 1917
2021-09-12 15:27:38.239359 1930
2021-09-12 15:27:38.245378 1936
2021-09-12 15:27:38.251327 1968
2021-09-12 15:27:38.257310 1974
2021-09-12 15:27:38.264295 1976
2021-09-12 15:27:38.270277 1975
2021-09-12 15:27:38.276260 1953
2021-09-12 15:27:38.283241 1956
2021-09-12 15:27:38.289226 1954
2021-09-12 15:27:38.295213 1933
2021-09-12 15:27:38.301197 1965
2021-09-12 15:27:38.308176 1962
2021-09-12 15:27:38.314160 1939
2021-09-12 15:27:38.320145 1934
2021-09-12 15:27:38.326127 1951
2021-09-12 15:27:38.333112 1971
2021-09-12 15:27:38.339125 1970
2021-09-12 15:27:38.345108 1957
2021-09-12 15:27:38.351061 1961
2021-09-12 15:27:38.358076 1946
2021-09-12 15:27:38.364026 1936
2021-09-12 15:27:38.370043 1983
2021-09-12 15:27:38.376991 1962
2021-09-12 15:27:38.382978 1946
2021-09-12 15:27:38.388988 1952
2021-09-12 15:27:38.394942 1962
2021-09-12 15:27:38.401925 1969
2021-09-12 15:27:38.407911 1936
2021-09-12 15:27:38.413892 1955
2021-09-12 15:27:38.419877 1983
2021-09-12 15:27:38.426857 1974
2021-09-12 15:27:38.432842 1975
2021-09-12 15:27:38.438826 1973
2021-09-12 15:27:38.444809 1972
2021-09-12 15:27:38.451792 1981
2021-09-12 15:27:38.457775 1951
2021-09-12 15:27:38.463789 1965
2021-09-12 15:27:38.469743 1968
2021-09-12 15:27:38.476757 1941
2021-09-12 15:27:38.482738 1967
2021-09-12 15:27:38.488722 1980
2021-09-12 15:27:38.495705 1959
2021-09-12 15:27:38.501659 1967
2021-09-12 15:27:38.507642 1991
2021-09-12 15:27:38.513657 2006
2021-09-12 15:27:38.520610 2006
2021-09-12 15:27:38.526591 2009
2021-09-12 15:27:38.532604 2053
2021-09-12 15:27:38.539592 2037
2021-09-12 15:27:38.545539 2031
2021-09-12 15:27:38.551524 2031
2021-09-12 15:27:38.557509 2021
2021-09-12 15:27:38.563493 2002
2021-09-12 15:27:38.570476 1981
2021-09-12 15:27:38.576460 1920
2021-09-12 15:27:38.582440 1925
2021-09-12 15:27:38.589422 1930
2021-09-12 15:27:38.595407 1911
2021-09-12 15:27:38.601390 1942
2021-09-12 15:27:38.607378 1941
2021-09-12 15:27:38.614357 1936
2021-09-12 15:27:38.620341 1941
2021-09-12 15:27:38.626325 1919
2021-09-12 15:27:38.632310 1935
2021-09-12 15:27:38.639289 1936
2021-09-12 15:27:38.645273 1933
2021-09-12 15:27:38.651256 1936
2021-09-12 15:27:38.657242 1885
2021-09-12 15:27:38.664221 1836
2021-09-12 15:27:38.670208 1860
2021-09-12 15:27:38.676191 1881
2021-09-12 15:27:38.683172 1829
2021-09-12 15:27:38.689156 1933
2021-09-12 15:27:38.695142 2416
2021-09-12 15:27:38.701123 2884
2021-09-12 15:27:38.708105 2688
2021-09-12 15:27:38.714090 2354
2021-09-12 15:27:38.720074 2240
2021-09-12 15:27:38.726062 2037
2021-09-12 15:27:38.733038 1931
2021-09-12 15:27:38.739022 1903
2021-09-12 15:27:38.745008 1865
2021-09-12 15:27:38.750992 1847
2021-09-12 15:27:38.757972 1872
2021-09-12 15:27:38.763957 1901
2021-09-12 15:27:38.769940 1913
2021-09-12 15:27:38.776926 1885
2021-09-12 15:27:38.782905 1867
2021-09-12 15:27:38.788920 1872
2021-09-12 15:27:38.794876 1891
2021-09-12 15:27:38.801856 1919
2021-09-12 15:27:38.807843 1906
2021-09-12 15:27:38.813826 1890
2021-09-12 15:27:38.820804 1904
2021-09-12 15:27:38.826788 1907
2021-09-12 15:27:38.832772 1895
2021-09-12 15:27:38.838780 1901
2021-09-12 15:27:38.844772 1901
2021-09-12 15:27:38.851720 1883
2021-09-12 15:27:38.857707 1869
2021-09-12 15:27:38.863693 1898
2021-09-12 15:27:38.869675 1903
2021-09-12 15:27:38.876660 1871
2021-09-12 15:27:38.882639 1885
2021-09-12 15:27:38.889621 1877
2021-09-12 15:27:38.895604 1851
2021-09-12 15:27:38.901589 1873
2021-09-12 15:27:38.907573 1883
2021-09-12 15:27:38.913557 1868
2021-09-12 15:27:38.920537 1861
2021-09-12 15:27:38.926546 1875
2021-09-12 15:27:38.932505 1910
2021-09-12 15:27:38.939017 1915
2021-09-12 15:27:38.944987 1929
2021-09-12 15:27:38.950966 1931
2021-09-12 15:27:38.957949 1901
2021-09-12 15:27:38.963933 1906
2021-09-12 15:27:38.969919 1935
2021-09-12 15:27:38.976899 1920
2021-09-12 15:27:38.982883 1906
2021-09-12 15:27:38.988867 1911
2021-09-12 15:27:38.994853 1904
2021-09-12 15:27:39.001831 1929
2021-09-12 15:27:39.007818 1918
2021-09-12 15:27:39.013799 1879
2021-09-12 15:27:39.019784 1901
2021-09-12 15:27:39.026765 1905
2021-09-12 15:27:39.032750 1914
2021-09-12 15:27:39.038732 1920
2021-09-12 15:27:39.045715 1903
2021-09-12 15:27:39.051702 1897
2021-09-12 15:27:39.057683 1910
2021-09-12 15:27:39.064669 1914
2021-09-12 15:27:39.070654 1927
2021-09-12 15:27:39.076632 1903
2021-09-12 15:27:39.082620 1895
2021-09-12 15:27:39.089599 1904
2021-09-12 15:27:39.095588 1906
2021-09-12 15:27:39.101595 1930
2021-09-12 15:27:39.107551 1936
2021-09-12 15:27:39.114531 1932
2021-09-12 15:27:39.120516 1918
2021-09-12 15:27:39.126535 1893
2021-09-12 15:27:39.133488 1909
2021-09-12 15:27:39.139470 1936
2021-09-12 15:27:39.145448 1953
2021-09-12 15:27:39.151432 1924
2021-09-12 15:27:39.158418 1884
2021-09-12 15:27:39.164402 1883
2021-09-12 15:27:39.170387 1899
2021-09-12 15:27:39.176367 1909
2021-09-12 15:27:39.183386 1911
2021-09-12 15:27:39.189362 1920
2021-09-12 15:27:39.195314 1919
2021-09-12 15:27:39.202295 1920
2021-09-12 15:27:39.208280 1910
2021-09-12 15:27:39.214263 1914
2021-09-12 15:27:39.220248 1937
2021-09-12 15:27:39.226231 1960
2021-09-12 15:27:39.233214 1989
2021-09-12 15:27:39.239206 1998
2021-09-12 15:27:39.245223 1982
2021-09-12 15:27:39.252164 1955
2021-09-12 15:27:39.258147 1964
2021-09-12 15:27:39.264131 1968
2021-09-12 15:27:39.270114 1942
2021-09-12 15:27:39.277097 1862
2021-09-12 15:27:39.283085 1869
2021-09-12 15:27:39.289065 1904
2021-09-12 15:27:39.295080 1893
2021-09-12 15:27:39.302031 1891
2021-09-12 15:27:39.308020 1879
2021-09-12 15:27:39.314001 1870
2021-09-12 15:27:39.320980 1888
2021-09-12 15:27:39.326963 1883
2021-09-12 15:27:39.332947 1903
2021-09-12 15:27:39.338933 1904
2021-09-12 15:27:39.344919 1885
2021-09-12 15:27:39.351895 1893
2021-09-12 15:27:39.357880 1856
2021-09-12 15:27:39.363866 1779
2021-09-12 15:27:39.370846 1778
2021-09-12 15:27:39.376830 1837
2021-09-12 15:27:39.382816 1814
2021-09-12 15:27:39.389796 1840
2021-09-12 15:27:39.395778 2227
2021-09-12 15:27:39.401762 2842
2021-09-12 15:27:39.407746 2761
2021-09-12 15:27:39.413730 2393
2021-09-12 15:27:39.420713 2234
2021-09-12 15:27:39.426695 2030
2021-09-12 15:27:39.432682 1858
2021-09-12 15:27:39.438666 1835
2021-09-12 15:27:39.445647 1845
2021-09-12 15:27:39.451631 1838
2021-09-12 15:27:39.457615 1806
2021-09-12 15:27:39.463598 1817
2021-09-12 15:27:39.470580 1846
2021-09-12 15:27:39.476564 1845
2021-09-12 15:27:39.482547 1834
2021-09-12 15:27:39.489526 1851
2021-09-12 15:27:39.495515 1851
2021-09-12 15:27:39.501496 1835
2021-09-12 15:27:39.507478 1856
2021-09-12 15:27:39.514460 1872
2021-09-12 15:27:39.520444 1835
2021-09-12 15:27:39.526429 1802
2021-09-12 15:27:39.532411 1787
2021-09-12 15:27:39.539400 1835
2021-09-12 15:27:39.545379 1845
2021-09-12 15:27:39.551361 1867
2021-09-12 15:27:39.557366 1856
2021-09-12 15:27:39.564328 1853
2021-09-12 15:27:39.570311 1843
2021-09-12 15:27:39.576296 1818
2021-09-12 15:27:39.582278 1823
2021-09-12 15:27:39.589260 1823
2021-09-12 15:27:39.595248 1808
2021-09-12 15:27:39.601229 1827
2021-09-12 15:27:39.607214 1827
2021-09-12 15:27:39.614196 1794
2021-09-12 15:27:39.620180 1795
2021-09-12 15:27:39.627162 1849
2021-09-12 15:27:39.633145 1863
2021-09-12 15:27:39.639128 1845
2021-09-12 15:27:39.645112 1853
2021-09-12 15:27:39.652094 1890
2021-09-12 15:27:39.658078 1861
2021-09-12 15:27:39.664573 1842
2021-09-12 15:27:39.670564 1872
2021-09-12 15:27:39.676550 1872
2021-09-12 15:27:39.683531 1857
2021-09-12 15:27:39.689514 1866
2021-09-12 15:27:39.695498 1857
2021-09-12 15:27:39.701490 1866
2021-09-12 15:27:39.708465 1877
2021-09-12 15:27:39.714449 1867
2021-09-12 15:27:39.720431 1870
2021-09-12 15:27:39.726459 1862
2021-09-12 15:27:39.732399 1872
2021-09-12 15:27:39.739381 1871
2021-09-12 15:27:39.745371 1870
2021-09-12 15:27:39.751352 1903
2021-09-12 15:27:39.758341 1873
2021-09-12 15:27:39.764315 1842
2021-09-12 15:27:39.770300 1863
2021-09-12 15:27:39.777280 1872
2021-09-12 15:27:39.783263 1873
2021-09-12 15:27:39.789249 1872
2021-09-12 15:27:39.795271 1874
2021-09-12 15:27:39.802220 1913
2021-09-12 15:27:39.808200 1904
2021-09-12 15:27:39.814181 1886
2021-09-12 15:27:39.821163 1872
2021-09-12 15:27:39.827147 1873
2021-09-12 15:27:39.833139 1884
2021-09-12 15:27:39.839124 1914
2021-09-12 15:27:39.845098 1906
2021-09-12 15:27:39.852078 1887
2021-09-12 15:27:39.858065 1895
2021-09-12 15:27:39.864048 1879
2021-09-12 15:27:39.870626 1872
2021-09-12 15:27:39.876612 1871
2021-09-12 15:27:39.882594 1873
2021-09-12 15:27:39.888579 1887
2021-09-12 15:27:39.895560 1900
2021-09-12 15:27:39.901542 1888
2021-09-12 15:27:39.907532 1906
2021-09-12 15:27:39.913510 1923
2021-09-12 15:27:39.920492 1912
2021-09-12 15:27:39.926476 1901
2021-09-12 15:27:39.932461 1923
2021-09-12 15:27:39.938445 1965
2021-09-12 15:27:39.945426 1987
2021-09-12 15:27:39.951411 1975
2021-09-12 15:27:39.957393 1959
2021-09-12 15:27:39.963377 1943
2021-09-12 15:27:39.970359 1957
2021-09-12 15:27:39.976353 1931
2021-09-12 15:27:39.982329 1921
2021-09-12 15:27:39.988331 1911
2021-09-12 15:27:39.995292 1901
2021-09-12 15:27:40.001277 1913
2021-09-12 15:27:40.007261 1876
2021-09-12 15:27:40.014243 1849
2021-09-12 15:27:40.020225 1879
2021-09-12 15:27:40.026210 1886
2021-09-12 15:27:40.032193 1871
2021-09-12 15:27:40.039176 1856
2021-09-12 15:27:40.045159 1887
2021-09-12 15:27:40.051143 1886
2021-09-12 15:27:40.057128 1863
2021-09-12 15:27:40.064109 1853
2021-09-12 15:27:40.070093 1885
2021-09-12 15:27:40.076077 1799
2021-09-12 15:27:40.082059 1759
2021-09-12 15:27:40.089041 1815
2021-09-12 15:27:40.095025 1824
2021-09-12 15:27:40.101009 1853
2021-09-12 15:27:40.107991 2207
2021-09-12 15:27:40.113974 2732
2021-09-12 15:27:40.119959 2814
2021-09-12 15:27:40.125944 2429
2021-09-12 15:27:40.132924 2246
2021-09-12 15:27:40.138909 2092
2021-09-12 15:27:40.144892 1906
2021-09-12 15:27:40.150877 1879
2021-09-12 15:27:40.157858 1858
2021-09-12 15:27:40.163841 1808
2021-09-12 15:27:40.169865 1791
2021-09-12 15:27:40.175810 1824
2021-09-12 15:27:40.182792 1840
2021-09-12 15:27:40.188775 1840
2021-09-12 15:27:40.194758 1857
2021-09-12 15:27:40.201742 1873
2021-09-12 15:27:40.207724 1870
2021-09-12 15:27:40.213707 1843
2021-09-12 15:27:40.219697 1846
2021-09-12 15:27:40.226672 1861
2021-09-12 15:27:40.232657 1859
2021-09-12 15:27:40.238646 1861
2021-09-12 15:27:40.244626 1868
2021-09-12 15:27:40.251607 1882
2021-09-12 15:27:40.257592 1856
2021-09-12 15:27:40.263574 1840
2021-09-12 15:27:40.269559 1858
2021-09-12 15:27:40.276540 1858
2021-09-12 15:27:40.282525 1841
2021-09-12 15:27:40.288509 1838
2021-09-12 15:27:40.295489 1834
2021-09-12 15:27:40.301474 1841
2021-09-12 15:27:40.307463 1830
2021-09-12 15:27:40.313442 1807
2021-09-12 15:27:40.320423 1811
2021-09-12 15:27:40.326408 1830
2021-09-12 15:27:40.332390 1853
2021-09-12 15:27:40.339372 1853
2021-09-12 15:27:40.345357 1840
2021-09-12 15:27:40.351340 1872
2021-09-12 15:27:40.357324 1887
2021-09-12 15:27:40.364306 1913
2021-09-12 15:27:40.370290 1895
2021-09-12 15:27:40.376276 1855
2021-09-12 15:27:40.382259 1878
2021-09-12 15:27:40.389239 1883
2021-09-12 15:27:40.395222 1858
2021-09-12 15:27:40.401207 1879
2021-09-12 15:27:40.407191 1891
2021-09-12 15:27:40.414171 1887
2021-09-12 15:27:40.420161 1872
2021-09-12 15:27:40.426139 1867
2021-09-12 15:27:40.432125 1873
2021-09-12 15:27:40.439106 1883
2021-09-12 15:27:40.445090 1881
2021-09-12 15:27:40.451073 1894
2021-09-12 15:27:40.458054 1879
2021-09-12 15:27:40.464039 1868
2021-09-12 15:27:40.470023 1875
2021-09-12 15:27:40.476008 1898
2021-09-12 15:27:40.481990 1902
2021-09-12 15:27:40.488977 1890
2021-09-12 15:27:40.494956 1873
2021-09-12 15:27:40.500940 1885
2021-09-12 15:27:40.507925 1878
2021-09-12 15:27:40.513906 1884
2021-09-12 15:27:40.519888 1897
2021-09-12 15:27:40.525874 1885
2021-09-12 15:27:40.532855 1890
2021-09-12 15:27:40.538841 1894
2021-09-12 15:27:40.544823 1889
2021-09-12 15:27:40.550808 1878
2021-09-12 15:27:40.557788 1882
2021-09-12 15:27:40.563771 1904
2021-09-12 15:27:40.569758 1905
2021-09-12 15:27:40.576737 1890
2021-09-12 15:27:40.582722 1898
2021-09-12 15:27:40.588707 1886
2021-09-12 15:27:40.594688 1872
2021-09-12 15:27:40.601672 1893
2021-09-12 15:27:40.607656 1906
2021-09-12 15:27:40.613643 1904
2021-09-12 15:27:40.619623 1923
2021-09-12 15:27:40.626605 1893
2021-09-12 15:27:40.632618 1895
2021-09-12 15:27:40.638572 1904
2021-09-12 15:27:40.645553 1915
2021-09-12 15:27:40.651538 1962
2021-09-12 15:27:40.657521 1984
2021-09-12 15:27:40.663505 1986
2021-09-12 15:27:40.670488 2006
2021-09-12 15:27:40.676471 1968
2021-09-12 15:27:40.682455 1943
2021-09-12 15:27:40.688440 1936
2021-09-12 15:27:40.695421 1933
2021-09-12 15:27:40.701406 1904
2021-09-12 15:27:40.707388 1886
2021-09-12 15:27:40.713457 1879
2021-09-12 15:27:40.720370 1897
2021-09-12 15:27:40.726410 1874
2021-09-12 15:27:40.732322 1891
2021-09-12 15:27:40.738305 1899
2021-09-12 15:27:40.745287 1890
2021-09-12 15:27:40.751272 1887
2021-09-12 15:27:40.757254 1872
2021-09-12 15:27:40.764237 1869
2021-09-12 15:27:40.770219 1909
2021-09-12 15:27:40.776204 1908
2021-09-12 15:27:40.782187 1854
2021-09-12 15:27:40.789169 1788
2021-09-12 15:27:40.795152 1776
2021-09-12 15:27:40.801137 1842
2021-09-12 15:27:40.807122 1808
2021-09-12 15:27:40.814103 1863
2021-09-12 15:27:40.820087 2331
2021-09-12 15:27:40.826070 2885
2021-09-12 15:27:40.832055 2759
2021-09-12 15:27:40.839036 2379
2021-09-12 15:27:40.845020 2195
2021-09-12 15:27:40.851004 2010
2021-09-12 15:27:40.857985 1872
2021-09-12 15:27:40.863969 1862
2021-09-12 15:27:40.869954 1873
2021-09-12 15:27:40.875939 1808
2021-09-12 15:27:40.882918 1791
2021-09-12 15:27:40.888903 1839
2021-09-12 15:27:40.894886 1857
2021-09-12 15:27:40.900870 1845
2021-09-12 15:27:40.907852 1841
2021-09-12 15:27:40.913835 1842
2021-09-12 15:27:40.919824 1861
2021-09-12 15:27:40.925804 1863
2021-09-12 15:27:40.932785 1871
2021-09-12 15:27:40.938769 1860
2021-09-12 15:27:40.944755 1845
2021-09-12 15:27:40.951736 1867
2021-09-12 15:27:40.957718 1865
2021-09-12 15:27:40.963703 1847
2021-09-12 15:27:40.969718 1859
2021-09-12 15:27:40.976668 1859
2021-09-12 15:27:40.982651 1855
2021-09-12 15:27:40.988640 1857
2021-09-12 15:27:40.994621 1847
2021-09-12 15:27:41.001601 1844
2021-09-12 15:27:41.007588 1830
2021-09-12 15:27:41.013568 1820
2021-09-12 15:27:41.019552 1828
2021-09-12 15:27:41.026534 1831
2021-09-12 15:27:41.032518 1848
2021-09-12 15:27:41.038503 1840
2021-09-12 15:27:41.044486 1826
2021-09-12 15:27:41.051470 1840
2021-09-12 15:27:41.057452 1858
2021-09-12 15:27:41.063436 1865
2021-09-12 15:27:41.070418 1881
2021-09-12 15:27:41.076401 1886
2021-09-12 15:27:41.082385 1879
2021-09-12 15:27:41.088369 1879
2021-09-12 15:27:41.095350 1872
2021-09-12 15:27:41.101336 1902
2021-09-12 15:27:41.107323 1904
2021-09-12 15:27:41.113303 1878
2021-09-12 15:27:41.120285 1877
2021-09-12 15:27:41.126268 1892
2021-09-12 15:27:41.132253 1879
2021-09-12 15:27:41.139234 1888
2021-09-12 15:27:41.145216 1863
2021-09-12 15:27:41.151201 1863
2021-09-12 15:27:41.157184 1873
2021-09-12 15:27:41.163169 1868
2021-09-12 15:27:41.170155 1879
2021-09-12 15:27:41.176135 1875
2021-09-12 15:27:41.182118 1885
2021-09-12 15:27:41.189100 1905
2021-09-12 15:27:41.195083 1873
2021-09-12 15:27:41.201067 1867
2021-09-12 15:27:41.208049 1890
2021-09-12 15:27:41.214032 1899
2021-09-12 15:27:41.220016 1894
2021-09-12 15:27:41.226001 1893
2021-09-12 15:27:41.231986 1898
2021-09-12 15:27:41.238971 1900
2021-09-12 15:27:41.244955 1881
2021-09-12 15:27:41.250934 1895
2021-09-12 15:27:41.257915 1890
2021-09-12 15:27:41.263900 1885
2021-09-12 15:27:41.269887 1887
2021-09-12 15:27:41.275867 1879
2021-09-12 15:27:41.282848 1882
2021-09-12 15:27:41.288837 1893
2021-09-12 15:27:41.294822 1879
2021-09-12 15:27:41.301798 1893
2021-09-12 15:27:41.307783 1887
2021-09-12 15:27:41.313766 1887
2021-09-12 15:27:41.319749 1891
2021-09-12 15:27:41.326732 1894
2021-09-12 15:27:41.332715 1910
2021-09-12 15:27:41.338734 1926
2021-09-12 15:27:41.344711 1920
2021-09-12 15:27:41.351693 1904
2021-09-12 15:27:41.357685 1909
2021-09-12 15:27:41.363675 1943
2021-09-12 15:27:41.370615 1966
2021-09-12 15:27:41.376598 1950
2021-09-12 15:27:41.382585 1985
2021-09-12 15:27:41.388565 1959
2021-09-12 15:27:41.395547 1910
2021-09-12 15:27:41.401531 1923
2021-09-12 15:27:41.407515 1917
2021-09-12 15:27:41.413499 1872
2021-09-12 15:27:41.420481 1861
2021-09-12 15:27:41.426494 1867
2021-09-12 15:27:41.432476 1877
2021-09-12 15:27:41.438432 1888
2021-09-12 15:27:41.445453 1866
2021-09-12 15:27:41.451397 1858
2021-09-12 15:27:41.457413 1856
2021-09-12 15:27:41.464363 1856
2021-09-12 15:27:41.470375 1857
2021-09-12 15:27:41.476363 1859
2021-09-12 15:27:41.482349 1885
2021-09-12 15:27:41.488300 1886
2021-09-12 15:27:41.495281 1844
2021-09-12 15:27:41.501265 1776
2021-09-12 15:27:41.508246 1776
2021-09-12 15:27:41.514261 1822
2021-09-12 15:27:41.520213 1815
2021-09-12 15:27:41.526198 1935
2021-09-12 15:27:41.532186 2331
2021-09-12 15:27:41.539163 2732
2021-09-12 15:27:41.545147 2651
2021-09-12 15:27:41.551131 2305
2021-09-12 15:27:41.557115 2133
2021-09-12 15:27:41.564096 1946
2021-09-12 15:27:41.570083 1825
2021-09-12 15:27:41.576065 1850
2021-09-12 15:27:41.582053 1851
2021-09-12 15:27:41.589030 1821
2021-09-12 15:27:41.595017 1795
2021-09-12 15:27:41.601001 1815
2021-09-12 15:27:41.606982 1829
2021-09-12 15:27:41.613967 1835
2021-09-12 15:27:41.619953 1861
2021-09-12 15:27:41.625931 1866
2021-09-12 15:27:41.632913 1856
2021-09-12 15:27:41.638897 1851
2021-09-12 15:27:41.644881 1834
2021-09-12 15:27:41.650864 1830
2021-09-12 15:27:41.657846 1862
2021-09-12 15:27:41.663830 1882
2021-09-12 15:27:41.669816 1867
2021-09-12 15:27:41.676796 1831
2021-09-12 15:27:41.682781 1826
2021-09-12 15:27:41.688765 1858
2021-09-12 15:27:41.694748 1882
2021-09-12 15:27:41.701728 1865
2021-09-12 15:27:41.707712 1849
2021-09-12 15:27:41.713696 1855
2021-09-12 15:27:41.720679 1846
2021-09-12 15:27:41.726662 1833
2021-09-12 15:27:41.732647 1826
2021-09-12 15:27:41.738634 1825
2021-09-12 15:27:41.745612 1830
2021-09-12 15:27:41.751595 1857
2021-09-12 15:27:41.757581 1858
2021-09-12 15:27:41.763563 1869
2021-09-12 15:27:41.770544 1902
2021-09-12 15:27:41.776550 1904
2021-09-12 15:27:41.782516 1872
2021-09-12 15:27:41.788497 1870
2021-09-12 15:27:41.795478 1873
2021-09-12 15:27:41.801465 1854
2021-09-12 15:27:41.807446 1853
2021-09-12 15:27:41.813431 1873
2021-09-12 15:27:41.820439 1875
2021-09-12 15:27:41.826396 1844
2021-09-12 15:27:41.832379 1846
2021-09-12 15:27:41.839378 1878
2021-09-12 15:27:41.845348 1856
2021-09-12 15:27:41.851329 1845
2021-09-12 15:27:41.857317 1868
2021-09-12 15:27:41.864294 1874
2021-09-12 15:27:41.870278 1877
2021-09-12 15:27:41.876263 1867
2021-09-12 15:27:41.882246 1863
2021-09-12 15:27:41.889230 1891
2021-09-12 15:27:41.895210 1897
2021-09-12 15:27:41.901195 1904
2021-09-12 15:27:41.907242 1867
2021-09-12 15:27:41.914161 1851
2021-09-12 15:27:41.920144 1881
2021-09-12 15:27:41.926128 1872
2021-09-12 15:27:41.932113 1842
2021-09-12 15:27:41.939095 1872
2021-09-12 15:27:41.945077 1879
2021-09-12 15:27:41.951062 1873
2021-09-12 15:27:41.958043 1867
2021-09-12 15:27:41.964031 1883
2021-09-12 15:27:41.970015 1887
2021-09-12 15:27:41.975995 1881
2021-09-12 15:27:41.982977 1886
2021-09-12 15:27:41.988965 1887
2021-09-12 15:27:41.994946 1869
2021-09-12 15:27:42.001926 1863
2021-09-12 15:27:42.007910 1874
2021-09-12 15:27:42.013895 1874
2021-09-12 15:27:42.019881 1890
2021-09-12 15:27:42.026859 1888
2021-09-12 15:27:42.032843 1872
2021-09-12 15:27:42.038828 1914
2021-09-12 15:27:42.044815 1940
2021-09-12 15:27:42.050815 1979
2021-09-12 15:27:42.057776 1968
2021-09-12 15:27:42.063791 1968
2021-09-12 15:27:42.069767 1979
2021-09-12 15:27:42.076751 1950
2021-09-12 15:27:42.082733 1907
2021-09-12 15:27:42.088720 1893
2021-09-12 15:27:42.094704 1877
2021-09-12 15:27:42.101683 1881
2021-09-12 15:27:42.107668 1873
2021-09-12 15:27:42.113670 1857
2021-09-12 15:27:42.119635 1871
2021-09-12 15:27:42.126616 1860
2021-09-12 15:27:42.132603 1855
2021-09-12 15:27:42.138584 1859
2021-09-12 15:27:42.145565 1843
2021-09-12 15:27:42.151548 1858
2021-09-12 15:27:42.157533 1865
2021-09-12 15:27:42.163520 1876
2021-09-12 15:27:42.170498 1904
2021-09-12 15:27:42.176491 1861
2021-09-12 15:27:42.182476 1744
2021-09-12 15:27:42.188459 1763
2021-09-12 15:27:42.195440 1841
2021-09-12 15:27:42.201426 1842
2021-09-12 15:27:42.207411 1984
2021-09-12 15:27:42.213391 2334
2021-09-12 15:27:42.220373 2659
2021-09-12 15:27:42.226357 2500
2021-09-12 15:27:42.232345 2226
2021-09-12 15:27:42.239321 2130
2021-09-12 15:27:42.245307 1989
2021-09-12 15:27:42.251291 1803
2021-09-12 15:27:42.257275 1792
2021-09-12 15:27:42.263257 1815
2021-09-12 15:27:42.270239 1808
2021-09-12 15:27:42.276227 1794
2021-09-12 15:27:42.282207 1809
2021-09-12 15:27:42.289189 1846
2021-09-12 15:27:42.295177 1859
2021-09-12 15:27:42.301157 1856
2021-09-12 15:27:42.307142 1846
2021-09-12 15:27:42.314122 1841
2021-09-12 15:27:42.320113 1861
2021-09-12 15:27:42.326091 1869
2021-09-12 15:27:42.332592 1873
2021-09-12 15:27:42.338574 1870
2021-09-12 15:27:42.345560 1843
2021-09-12 15:27:42.351548 1848
2021-09-12 15:27:42.357523 1847
2021-09-12 15:27:42.364504 1862
2021-09-12 15:27:42.370488 1882
2021-09-12 15:27:42.376472 1872
2021-09-12 15:27:42.382456 1870
2021-09-12 15:27:42.389436 1872
2021-09-12 15:27:42.395421 1862
2021-09-12 15:27:42.401405 1871
2021-09-12 15:27:42.407392 1862
2021-09-12 15:27:42.414376 1857
2021-09-12 15:27:42.420355 1870
2021-09-12 15:27:42.426375 1890
2021-09-12 15:27:42.432360 1884
2021-09-12 15:27:42.439307 1871
2021-09-12 15:27:42.445319 1862
2021-09-12 15:27:42.451273 1894
2021-09-12 15:27:42.457258 1909
2021-09-12 15:27:42.464276 1903
2021-09-12 15:27:42.470225 1895
2021-09-12 15:27:42.476206 1879
2021-09-12 15:27:42.483252 1893
2021-09-12 15:27:42.489265 1904
2021-09-12 15:27:42.495219 1886
2021-09-12 15:27:42.501205 1878
2021-09-12 15:27:42.508185 1879
2021-09-12 15:27:42.514172 1856
2021-09-12 15:27:42.520153 1872
2021-09-12 15:27:42.526137 1921
2021-09-12 15:27:42.533155 1911
2021-09-12 15:27:42.539143 1872
2021-09-12 15:27:42.545087 1853
2021-09-12 15:27:42.551070 1863
2021-09-12 15:27:42.558056 1887
2021-09-12 15:27:42.564039 1872
2021-09-12 15:27:42.571022 1887
2021-09-12 15:27:42.577005 1889
2021-09-12 15:27:42.583020 1872
2021-09-12 15:27:42.590125 1879
2021-09-12 15:27:42.595498 1882
2021-09-12 15:27:42.601482 1883
2021-09-12 15:27:42.607468 1895
2021-09-12 15:27:42.614443 1890
2021-09-12 15:27:42.620429 1890
2021-09-12 15:27:42.626416 1869
2021-09-12 15:27:42.633422 1867
2021-09-12 15:27:42.639377 1879
2021-09-12 15:27:42.645360 1872
2021-09-12 15:27:42.651393 1874
2021-09-12 15:27:42.657374 1877
2021-09-12 15:27:42.664309 1885
2021-09-12 15:27:42.670297 1907
2021-09-12 15:27:42.676283 1901
2021-09-12 15:27:42.683266 1875
2021-09-12 15:27:42.689243 1895
2021-09-12 15:27:42.695226 1882
2021-09-12 15:27:42.701211 1875
2021-09-12 15:27:42.708193 1904
2021-09-12 15:27:42.714205 1910
2021-09-12 15:27:42.720190 1903
2021-09-12 15:27:42.726179 1899
2021-09-12 15:27:42.733125 1889
2021-09-12 15:27:42.739110 1918
2021-09-12 15:27:42.745130 1953
2021-09-12 15:27:42.751112 1984
2021-09-12 15:27:42.758063 1989
2021-09-12 15:27:42.764046 1982
2021-09-12 15:27:42.770067 1978
2021-09-12 15:27:42.777019 1973
2021-09-12 15:27:42.782992 1935
2021-09-12 15:27:42.788976 1906
2021-09-12 15:27:42.794960 1881
2021-09-12 15:27:42.800980 1874
2021-09-12 15:27:42.807956 1870
2021-09-12 15:27:42.813958 1883
2021-09-12 15:27:42.820892 1893
2021-09-12 15:27:42.826921 1871
2021-09-12 15:27:42.832857 1859
2021-09-12 15:27:42.838843 1866
2021-09-12 15:27:42.844826 1872
2021-09-12 15:27:42.851817 1879
2021-09-12 15:27:42.857792 1879
2021-09-12 15:27:42.863777 1872
2021-09-12 15:27:42.869759 1882
2021-09-12 15:27:42.876740 1841
2021-09-12 15:27:42.882758 1767
2021-09-12 15:27:42.888708 1787
2021-09-12 15:27:42.894695 1849
2021-09-12 15:27:42.901697 1846
2021-09-12 15:27:42.907686 1991
2021-09-12 15:27:42.913675 2442
2021-09-12 15:27:42.920666 2847
2021-09-12 15:27:42.926607 2620
2021-09-12 15:27:42.932592 2291
2021-09-12 15:27:42.938576 2177
2021-09-12 15:27:42.945558 1985
2021-09-12 15:27:42.951541 1797
2021-09-12 15:27:42.957526 1814
2021-09-12 15:27:42.963508 1812
2021-09-12 15:27:42.970489 1803
2021-09-12 15:27:42.976474 1807
2021-09-12 15:27:42.982459 1834
2021-09-12 15:27:42.988442 1857
2021-09-12 15:27:42.995424 1829
2021-09-12 15:27:43.001408 1840
2021-09-12 15:27:43.007395 1856
2021-09-12 15:27:43.013374 1852
2021-09-12 15:27:43.020357 1859
2021-09-12 15:27:43.026341 1862
2021-09-12 15:27:43.032329 1872
2021-09-12 15:27:43.038308 1869
2021-09-12 15:27:43.045293 1863
2021-09-12 15:27:43.051274 1875
2021-09-12 15:27:43.057258 1886
2021-09-12 15:27:43.063243 1865
2021-09-12 15:27:43.070224 1872
2021-09-12 15:27:43.076207 1867
2021-09-12 15:27:43.082195 1870
2021-09-12 15:27:43.089172 1877
2021-09-12 15:27:43.095156 1877
2021-09-12 15:27:43.101140 1851
2021-09-12 15:27:43.107125 1850
2021-09-12 15:27:43.114105 1851
2021-09-12 15:27:43.120090 1862
2021-09-12 15:27:43.126074 1859
2021-09-12 15:27:43.132057 1849
2021-09-12 15:27:43.139040 1847
2021-09-12 15:27:43.145035 1866
2021-09-12 15:27:43.151010 1893
2021-09-12 15:27:43.157989 1910
2021-09-12 15:27:43.163978 1910
2021-09-12 15:27:43.169956 1915
2021-09-12 15:27:43.175945 1909
2021-09-12 15:27:43.182922 1919
2021-09-12 15:27:43.188906 1937
2021-09-12 15:27:43.194890 1911
2021-09-12 15:27:43.200873 1885
2021-09-12 15:27:43.207854 1887
2021-09-12 15:27:43.213842 1881
2021-09-12 15:27:43.219881 1901
2021-09-12 15:27:43.226803 1881
2021-09-12 15:27:43.232789 1901
2021-09-12 15:27:43.238773 1898
2021-09-12 15:27:43.244757 1884
2021-09-12 15:27:43.251739 1891
2021-09-12 15:27:43.257724 1905
2021-09-12 15:27:43.263706 1868
2021-09-12 15:27:43.269693 1875
2021-09-12 15:27:43.276671 1893
2021-09-12 15:27:43.282656 1899
2021-09-12 15:27:43.288643 1914
2021-09-12 15:27:43.295620 1901
2021-09-12 15:27:43.301605 1919
2021-09-12 15:27:43.307589 1914
2021-09-12 15:27:43.313573 1887
2021-09-12 15:27:43.320556 1901
2021-09-12 15:27:43.326539 1904
2021-09-12 15:27:43.332630 1903
2021-09-12 15:27:43.338576 1911
2021-09-12 15:27:43.345528 1882
2021-09-12 15:27:43.351541 1904
2021-09-12 15:27:43.357526 1913
2021-09-12 15:27:43.363481 1890
2021-09-12 15:27:43.370462 1899
2021-09-12 15:27:43.376444 1882
2021-09-12 15:27:43.382431 1887
2021-09-12 15:27:43.388413 1911
2021-09-12 15:27:43.395393 1904
2021-09-12 15:27:43.401383 1895
2021-09-12 15:27:43.407361 1910
2021-09-12 15:27:43.413346 1921
2021-09-12 15:27:43.420326 1917
2021-09-12 15:27:43.425828 1919
2021-09-12 15:27:43.432804 1917
2021-09-12 15:27:43.438789 1921
2021-09-12 15:27:43.444773 1931
2021-09-12 15:27:43.450756 1975
2021-09-12 15:27:43.457739 1983
2021-09-12 15:27:43.463726 1983
2021-09-12 15:27:43.469707 1991
2021-09-12 15:27:43.476687 1968
2021-09-12 15:27:43.482674 1957
2021-09-12 15:27:43.488655 1945
2021-09-12 15:27:43.495637 1920
2021-09-12 15:27:43.501621 1875
2021-09-12 15:27:43.507605 1902
2021-09-12 15:27:43.513588 1917
2021-09-12 15:27:43.519572 1901
2021-09-12 15:27:43.526553 1856
2021-09-12 15:27:43.532538 1864
2021-09-12 15:27:43.538526 1893
2021-09-12 15:27:43.545502 1875
2021-09-12 15:27:43.551488 1886
2021-09-12 15:27:43.557472 1888
2021-09-12 15:27:43.563455 1877
2021-09-12 15:27:43.570437 1892
2021-09-12 15:27:43.576421 1890
2021-09-12 15:27:43.582404 1865
2021-09-12 15:27:43.588392 1793
2021-09-12 15:27:43.595370 1776
2021-09-12 15:27:43.601359 1865
2021-09-12 15:27:43.607341 1855
2021-09-12 15:27:43.613323 1950
2021-09-12 15:27:43.620303 2465
2021-09-12 15:27:43.626289 2989
2021-09-12 15:27:43.632272 2753
2021-09-12 15:27:43.639253 2378
2021-09-12 15:27:43.645237 2175
2021-09-12 15:27:43.651737 1950
2021-09-12 15:27:43.657722 1851
2021-09-12 15:27:43.663705 1845
2021-09-12 15:27:43.670687 1830
2021-09-12 15:27:43.676671 1808
2021-09-12 15:27:43.682659 1810
2021-09-12 15:27:43.688640 1838
2021-09-12 15:27:43.695649 1849
2021-09-12 15:27:43.701605 1867
2021-09-12 15:27:43.707589 1861
2021-09-12 15:27:43.713606 1848
2021-09-12 15:27:43.720554 1863
2021-09-12 15:27:43.726537 1899
2021-09-12 15:27:43.732525 1873
2021-09-12 15:27:43.738505 1859
2021-09-12 15:27:43.745486 1856
2021-09-12 15:27:43.751471 1869
2021-09-12 15:27:43.757459 1879
2021-09-12 15:27:43.764441 1875
2021-09-12 15:27:43.770418 1885
2021-09-12 15:27:43.776473 1890
2021-09-12 15:27:43.782430 1859
2021-09-12 15:27:43.788370 1845
2021-09-12 15:27:43.795351 1834
2021-09-12 15:27:43.801340 1846
2021-09-12 15:27:43.807321 1859
2021-09-12 15:27:43.813304 1840
2021-09-12 15:27:43.820286 1827
2021-09-12 15:27:43.826320 1841
2021-09-12 15:27:43.832253 1856
2021-09-12 15:27:43.838237 1863
2021-09-12 15:27:43.845218 1857
2021-09-12 15:27:43.851207 1850
2021-09-12 15:27:43.857191 1872
2021-09-12 15:27:43.864167 1893
2021-09-12 15:27:43.870171 1920
2021-09-12 15:27:43.876136 1898
2021-09-12 15:27:43.882120 1874
2021-09-12 15:27:43.889103 1893
2021-09-12 15:27:43.895084 1897
2021-09-12 15:27:43.901073 1905
2021-09-12 15:27:43.907053 1910
2021-09-12 15:27:43.914034 1883
2021-09-12 15:27:43.920023 1889
2021-09-12 15:27:43.926003 1897
2021-09-12 15:27:43.931988 1886
2021-09-12 15:27:43.938968 1884
2021-09-12 15:27:43.944952 1886
2021-09-12 15:27:43.950935 1893
2021-09-12 15:27:43.957918 1900
2021-09-12 15:27:43.963901 1875
2021-09-12 15:27:43.969885 1873
2021-09-12 15:27:43.975869 1873
2021-09-12 15:27:43.981853 1875
2021-09-12 15:27:43.988862 1909
2021-09-12 15:27:43.994820 1905
2021-09-12 15:27:44.000803 1886
2021-09-12 15:27:44.007785 1895
2021-09-12 15:27:44.013767 1896
2021-09-12 15:27:44.019751 1904
2021-09-12 15:27:44.025736 1897
2021-09-12 15:27:44.032716 1895
2021-09-12 15:27:44.038701 1910
2021-09-12 15:27:44.044684 1905
2021-09-12 15:27:44.051666 1897
2021-09-12 15:27:44.057650 1899
2021-09-12 15:27:44.063636 1888
2021-09-12 15:27:44.069620 1911
2021-09-12 15:27:44.076602 1910
2021-09-12 15:27:44.082583 1904
2021-09-12 15:27:44.088567 1901
2021-09-12 15:27:44.094551 1899
2021-09-12 15:27:44.101532 1907
2021-09-12 15:27:44.107516 1915
2021-09-12 15:27:44.113528 1891
2021-09-12 15:27:44.120512 1904
2021-09-12 15:27:44.126466 1904
2021-09-12 15:27:44.132480 1907
2021-09-12 15:27:44.138434 1936
2021-09-12 15:27:44.145415 1911
2021-09-12 15:27:44.151428 1913
2021-09-12 15:27:44.157420 1923
2021-09-12 15:27:44.163401 1913
2021-09-12 15:27:44.170377 1946
2021-09-12 15:27:44.176373 1984
2021-09-12 15:27:44.182351 1973
2021-09-12 15:27:44.189299 1984
2021-09-12 15:27:44.195282 1981
2021-09-12 15:27:44.201266 1978
2021-09-12 15:27:44.207282 1991
2021-09-12 15:27:44.213264 1963
2021-09-12 15:27:44.219766 1935
2021-09-12 15:27:44.225748 1900
2021-09-12 15:27:44.232734 1872
2021-09-12 15:27:44.238714 1898
2021-09-12 15:27:44.244702 1923
2021-09-12 15:27:44.251648 1883
2021-09-12 15:27:44.257632 1891
2021-09-12 15:27:44.263616 1873
2021-09-12 15:27:44.269599 1872
2021-09-12 15:27:44.276581 1872
2021-09-12 15:27:44.282569 1888
2021-09-12 15:27:44.288553 1911
2021-09-12 15:27:44.295530 1902
2021-09-12 15:27:44.301514 1882
2021-09-12 15:27:44.307504 1878
2021-09-12 15:27:44.313483 1847
2021-09-12 15:27:44.320465 1795
2021-09-12 15:27:44.326449 1839
2021-09-12 15:27:44.332432 1861
2021-09-12 15:27:44.338450 1846
2021-09-12 15:27:44.344434 2110
2021-09-12 15:27:44.351408 2782
2021-09-12 15:27:44.357400 2955
2021-09-12 15:27:44.364347 2625
2021-09-12 15:27:44.370332 2304
2021-09-12 15:27:44.376314 2075
2021-09-12 15:27:44.382301 1861
2021-09-12 15:27:44.388302 1835
2021-09-12 15:27:44.395283 1866
2021-09-12 15:27:44.401272 1833
2021-09-12 15:27:44.407253 1805
2021-09-12 15:27:44.413240 1808
2021-09-12 15:27:44.419757 1829
2021-09-12 15:27:44.425734 1837
2021-09-12 15:27:44.432716 1814
2021-09-12 15:27:44.438699 1830
2021-09-12 15:27:44.444687 1847
2021-09-12 15:27:44.451671 1854
2021-09-12 15:27:44.457673 1846
2021-09-12 15:27:44.463782 1840
2021-09-12 15:27:44.469617 1850
2021-09-12 15:27:44.476598 1856
2021-09-12 15:27:44.482586 1857
2021-09-12 15:27:44.488566 1867
2021-09-12 15:27:44.494551 1853
2021-09-12 15:27:44.501531 1850
2021-09-12 15:27:44.507516 1840
2021-09-12 15:27:44.513500 1808
2021-09-12 15:27:44.519487 1808
2021-09-12 15:27:44.526464 1808
2021-09-12 15:27:44.532449 1807
2021-09-12 15:27:44.538438 1822
2021-09-12 15:27:44.545414 1806
2021-09-12 15:27:44.551398 1795
2021-09-12 15:27:44.557407 1793
2021-09-12 15:27:44.563367 1803
2021-09-12 15:27:44.570362 1817
2021-09-12 15:27:44.576332 1797
2021-09-12 15:27:44.582315 1787
2021-09-12 15:27:44.588327 1819
2021-09-12 15:27:44.594315 1839
2021-09-12 15:27:44.601297 1839
2021-09-12 15:27:44.607250 1809
2021-09-12 15:27:44.613239 1807
2021-09-12 15:27:44.620213 1830
2021-09-12 15:27:44.626199 1833
2021-09-12 15:27:44.632183 1810
2021-09-12 15:27:44.639166 1811
2021-09-12 15:27:44.645148 1808
2021-09-12 15:27:44.651135 1781
2021-09-12 15:27:44.657115 1797
2021-09-12 15:27:44.664096 1791
2021-09-12 15:27:44.670081 1782
2021-09-12 15:27:44.676065 1792
2021-09-12 15:27:44.682048 1789
2021-09-12 15:27:44.689032 1776
2021-09-12 15:27:44.695014 1777
2021-09-12 15:27:44.700997 1776
2021-09-12 15:27:44.706986 1781
2021-09-12 15:27:44.713963 1749
2021-09-12 15:27:44.719955 1744
2021-09-12 15:27:44.725941 1776
2021-09-12 15:27:44.732917 1789
2021-09-12 15:27:44.738900 1788
2021-09-12 15:27:44.744884 1766
2021-09-12 15:27:44.750869 1751
2021-09-12 15:27:44.756855 1779
2021-09-12 15:27:44.763836 1785
2021-09-12 15:27:44.769818 1788
2021-09-12 15:27:44.775806 1787
2021-09-12 15:27:44.782783 1787
2021-09-12 15:27:44.788291 1787
2021-09-12 15:27:44.795267 1790
2021-09-12 15:27:44.801251 1779
2021-09-12 15:27:44.807234 1780
2021-09-12 15:27:44.813218 1795
2021-09-12 15:27:44.820201 1799
2021-09-12 15:27:44.826184 1756
2021-09-12 15:27:44.832172 1744
2021-09-12 15:27:44.839149 1782
2021-09-12 15:27:44.845133 1793
2021-09-12 15:27:44.851122 1783
2021-09-12 15:27:44.857101 1791
2021-09-12 15:27:44.864083 1776
2021-09-12 15:27:44.870072 1779
2021-09-12 15:27:44.876050 1801
2021-09-12 15:27:44.882035 1799
2021-09-12 15:27:44.889018 1814
2021-09-12 15:27:44.895004 1822
2021-09-12 15:27:44.900984 1818
2021-09-12 15:27:44.906972 1829
2021-09-12 15:27:44.913949 1812
2021-09-12 15:27:44.919935 1810
2021-09-12 15:27:44.925922 1856
2021-09-12 15:27:44.931901 1885
2021-09-12 15:27:44.938883 1891
2021-09-12 15:27:44.944866 1893
2021-09-12 15:27:44.950851 1917
2021-09-12 15:27:44.957831 1909
2021-09-12 15:27:44.963819 1878
2021-09-12 15:27:44.969804 1875
2021-09-12 15:27:44.975784 1872
2021-09-12 15:27:44.982767 1837
2021-09-12 15:27:44.988754 1824
2021-09-12 15:27:44.994733 1837
2021-09-12 15:27:45.000718 1835
2021-09-12 15:27:45.007699 1843
2021-09-12 15:27:45.013682 1844
2021-09-12 15:27:45.019667 1840
2021-09-12 15:27:45.025651 1840
2021-09-12 15:27:45.032632 1843
2021-09-12 15:27:45.038616 1840
2021-09-12 15:27:45.044605 1838
2021-09-12 15:27:45.051581 1861
2021-09-12 15:27:45.057565 1881
2021-09-12 15:27:45.063549 1858
2021-09-12 15:27:45.069536 1854
2021-09-12 15:27:45.076517 1781
2021-09-12 15:27:45.082501 1786
2021-09-12 15:27:45.088483 1872
2021-09-12 15:27:45.094471 1854
2021-09-12 15:27:45.101448 2112
2021-09-12 15:27:45.107432 2727
2021-09-12 15:27:45.113420 2997
2021-09-12 15:27:45.120422 2737
2021-09-12 15:27:45.126380 2347
2021-09-12 15:27:45.132366 2160
2021-09-12 15:27:45.138349 1979
2021-09-12 15:27:45.145340 1904
2021-09-12 15:27:45.151314 1913
2021-09-12 15:27:45.157302 1903
2021-09-12 15:27:45.163283 1878
2021-09-12 15:27:45.170264 1911
2021-09-12 15:27:45.176248 1934
2021-09-12 15:27:45.182232 1913
2021-09-12 15:27:45.188216 1943
2021-09-12 15:27:45.195197 1955
2021-09-12 15:27:45.201181 1968
2021-09-12 15:27:45.207169 1982
2021-09-12 15:27:45.213167 1966
2021-09-12 15:27:45.220131 1971
2021-09-12 15:27:45.226120 2015
2021-09-12 15:27:45.232098 1987
2021-09-12 15:27:45.239079 2000
2021-09-12 15:27:45.245064 2021
2021-09-12 15:27:45.251048 2007
2021-09-12 15:27:45.257034 2010
2021-09-12 15:27:45.264015 2013
2021-09-12 15:27:45.270001 1992
2021-09-12 15:27:45.275985 2030
2021-09-12 15:27:45.281965 2020
2021-09-12 15:27:45.288946 2018
2021-09-12 15:27:45.294931 2017
2021-09-12 15:27:45.300915 2017
2021-09-12 15:27:45.306898 2030
2021-09-12 15:27:45.313880 2038
2021-09-12 15:27:45.319866 2041
2021-09-12 15:27:45.326847 2081
2021-09-12 15:27:45.332829 2081
2021-09-12 15:27:45.338815 2073
2021-09-12 15:27:45.344826 2079
2021-09-12 15:27:45.350815 2109
2021-09-12 15:27:45.357764 2146
2021-09-12 15:27:45.363746 2142
2021-09-12 15:27:45.369731 2143
2021-09-12 15:27:45.375714 2134
2021-09-12 15:27:45.382696 2127
2021-09-12 15:27:45.388680 2134
2021-09-12 15:27:45.394669 2175
2021-09-12 15:27:45.401645 2131
2021-09-12 15:27:45.407633 2134
2021-09-12 15:27:45.413617 2131
2021-09-12 15:27:45.419602 2135
2021-09-12 15:27:45.426578 2161
2021-09-12 15:27:45.432562 2163
2021-09-12 15:27:45.438547 2161
2021-09-12 15:27:45.444534 2146
2021-09-12 15:27:45.451518 2155
2021-09-12 15:27:45.457497 2155
2021-09-12 15:27:45.463483 2140
2021-09-12 15:27:45.469470 2141
2021-09-12 15:27:45.476446 2160
2021-09-12 15:27:45.482455 2150
2021-09-12 15:27:45.488418 2163
2021-09-12 15:27:45.495395 2162
2021-09-12 15:27:45.501378 2161
2021-09-12 15:27:45.507362 2175
2021-09-12 15:27:45.514360 2162
2021-09-12 15:27:45.519330 2165
2021-09-12 15:27:45.526315 2176
2021-09-12 15:27:45.532299 2178
2021-09-12 15:27:45.538280 2193
2021-09-12 15:27:45.545261 2192
2021-09-12 15:27:45.551245 2160
2021-09-12 15:27:45.557229 2167
2021-09-12 15:27:45.563213 2170
2021-09-12 15:27:45.570195 2168
2021-09-12 15:27:45.576179 2166
2021-09-12 15:27:45.582164 2151
2021-09-12 15:27:45.589144 2167
2021-09-12 15:27:45.595128 2176
2021-09-12 15:27:45.601112 2170
2021-09-12 15:27:45.607096 2179
2021-09-12 15:27:45.614109 2165
2021-09-12 15:27:45.620061 2178
2021-09-12 15:27:45.626074 2185
2021-09-12 15:27:45.632029 2187
2021-09-12 15:27:45.639012 2199
2021-09-12 15:27:45.644994 2183
2021-09-12 15:27:45.651011 2174
2021-09-12 15:27:45.656997 2175
2021-09-12 15:27:45.663971 2186
2021-09-12 15:27:45.669960 2195
2021-09-12 15:27:45.675945 2198
2021-09-12 15:27:45.682894 2203
2021-09-12 15:27:45.688877 2207
2021-09-12 15:27:45.694863 2189
2021-09-12 15:27:45.700845 2210
2021-09-12 15:27:45.706833 2253
2021-09-12 15:27:45.713814 2251
2021-09-12 15:27:45.719799 2256
2021-09-12 15:27:45.725779 2283
2021-09-12 15:27:45.732759 2256
2021-09-12 15:27:45.738749 2239
2021-09-12 15:27:45.744729 2206
2021-09-12 15:27:45.750712 2191
2021-09-12 15:27:45.757693 2170
2021-09-12 15:27:45.763677 2127
2021-09-12 15:27:45.769665 2133
2021-09-12 15:27:45.776642 2161
2021-09-12 15:27:45.782626 2155
2021-09-12 15:27:45.788610 2139
2021-09-12 15:27:45.794598 2139
2021-09-12 15:27:45.801576 2135
2021-09-12 15:27:45.807565 2124
2021-09-12 15:27:45.813543 2102
2021-09-12 15:27:45.820525 2118
2021-09-12 15:27:45.826510 2155
2021-09-12 15:27:45.832497 2131
2021-09-12 15:27:45.838477 2128
2021-09-12 15:27:45.844464 2101
2021-09-12 15:27:45.851442 2001
2021-09-12 15:27:45.857431 2030
2021-09-12 15:27:45.863411 2095
2021-09-12 15:27:45.870391 2047
2021-09-12 15:27:45.876375 2301
2021-09-12 15:27:45.882360 2943
2021-09-12 15:27:45.888344 3344
2021-09-12 15:27:45.895325 2995
2021-09-12 15:27:45.901308 2510
2021-09-12 15:27:45.907298 2332
2021-09-12 15:27:45.913280 2150
2021-09-12 15:27:45.920258 2077
2021-09-12 15:27:45.926242 2097
2021-09-12 15:27:45.932226 2053
2021-09-12 15:27:45.938212 2019
2021-09-12 15:27:45.945191 2031
2021-09-12 15:27:45.951175 2047
2021-09-12 15:27:45.957159 2063
2021-09-12 15:27:45.964140 2061
2021-09-12 15:27:45.970129 2062
2021-09-12 15:27:45.976113 2071
2021-09-12 15:27:45.982092 2063
2021-09-12 15:27:45.989074 2067
2021-09-12 15:27:45.995058 2067
2021-09-12 15:27:46.001042 2039
2021-09-12 15:27:46.007029 2054
2021-09-12 15:27:46.014007 2043
2021-09-12 15:27:46.019996 2032
2021-09-12 15:27:46.025979 2033
2021-09-12 15:27:46.031963 2032
2021-09-12 15:27:46.038940 2035
2021-09-12 15:27:46.045082 2032
2021-09-12 15:27:46.050914 2024
2021-09-12 15:27:46.056895 2017
2021-09-12 15:27:46.063874 1988
2021-09-12 15:27:46.069858 1999
2021-09-12 15:27:46.075841 2016
2021-09-12 15:27:46.081825 1979
2021-09-12 15:27:46.088807 1962
2021-09-12 15:27:46.094791 1975
2021-09-12 15:27:46.100780 1978
2021-09-12 15:27:46.107757 1988
2021-09-12 15:27:46.113743 2000
2021-09-12 15:27:46.119725 2000
2021-09-12 15:27:46.125710 2002
2021-09-12 15:27:46.132691 2000
2021-09-12 15:27:46.138673 1998
2021-09-12 15:27:46.144663 1988
2021-09-12 15:27:46.150732 1982
2021-09-12 15:27:46.157708 1983
2021-09-12 15:27:46.163696 1975
2021-09-12 15:27:46.169676 1973
2021-09-12 15:27:46.176657 1987
2021-09-12 15:27:46.182642 1971
2021-09-12 15:27:46.188626 1968
2021-09-12 15:27:46.194609 1969
2021-09-12 15:27:46.201590 1963
2021-09-12 15:27:46.207582 1975
2021-09-12 15:27:46.213559 1968
2021-09-12 15:27:46.219543 1952
2021-09-12 15:27:46.226524 1942
2021-09-12 15:27:46.232512 1943
2021-09-12 15:27:46.238497 1952
2021-09-12 15:27:46.244476 1942
2021-09-12 15:27:46.251459 1926
2021-09-12 15:27:46.257442 1945
2021-09-12 15:27:46.263426 1938
2021-09-12 15:27:46.269416 1925
2021-09-12 15:27:46.276391 1978
2021-09-12 15:27:46.282375 1942
2021-09-12 15:27:46.288359 1938
2021-09-12 15:27:46.294343 1934
2021-09-12 15:27:46.301324 1936
2021-09-12 15:27:46.307309 1939
2021-09-12 15:27:46.313293 1915
2021-09-12 15:27:46.320277 1911
2021-09-12 15:27:46.326257 1936
2021-09-12 15:27:46.332274 1921
2021-09-12 15:27:46.338254 1905
2021-09-12 15:27:46.345236 1910
2021-09-12 15:27:46.351223 1910
2021-09-12 15:27:46.357208 1904
2021-09-12 15:27:46.363192 1895
2021-09-12 15:27:46.370170 1897
2021-09-12 15:27:46.376124 1906
2021-09-12 15:27:46.382109 1891
2021-09-12 15:27:46.389091 1899
2021-09-12 15:27:46.395085 1889
2021-09-12 15:27:46.401057 1874
2021-09-12 15:27:46.407046 1884
2021-09-12 15:27:46.414022 1877
2021-09-12 15:27:46.420008 1872
2021-09-12 15:27:46.425991 1863
2021-09-12 15:27:46.431975 1860
2021-09-12 15:27:46.438958 1874
2021-09-12 15:27:46.444940 1857
2021-09-12 15:27:46.450924 1851
2021-09-12 15:27:46.456912 1883
2021-09-12 15:27:46.463936 1874
2021-09-12 15:27:46.469945 1862
2021-09-12 15:27:46.475857 1881
2021-09-12 15:27:46.482838 1872
2021-09-12 15:27:46.488823 1872
2021-09-12 15:27:46.494807 1874
2021-09-12 15:27:46.500791 1906
2021-09-12 15:27:46.507772 1930
2021-09-12 15:27:46.513756 1923
2021-09-12 15:27:46.519740 1935
2021-09-12 15:27:46.525724 1959
2021-09-12 15:27:46.532705 1902
2021-09-12 15:27:46.538695 1861
2021-09-12 15:27:46.544677 1867
2021-09-12 15:27:46.550697 1855
2021-09-12 15:27:46.557682 1824
2021-09-12 15:27:46.563665 1774
2021-09-12 15:27:46.569651 1783
2021-09-12 15:27:46.576640 1814
2021-09-12 15:27:46.582614 1799
2021-09-12 15:27:46.588602 1803
2021-09-12 15:27:46.594582 1806
2021-09-12 15:27:46.601563 1800
2021-09-12 15:27:46.607553 1792
2021-09-12 15:27:46.613532 1783
2021-09-12 15:27:46.619516 1795
2021-09-12 15:27:46.626497 1798
2021-09-12 15:27:46.632483 1775
2021-09-12 15:27:46.638466 1770
2021-09-12 15:27:46.644452 1728
2021-09-12 15:27:46.651431 1675
2021-09-12 15:27:46.657441 1723
2021-09-12 15:27:46.663398 1719
2021-09-12 15:27:46.669383 1739
2021-09-12 15:27:46.676365 2289
2021-09-12 15:27:46.682349 2819
2021-09-12 15:27:46.688351 2745
2021-09-12 15:27:46.695360 2351
2021-09-12 15:27:46.701298 2055
2021-09-12 15:27:46.707400 1862
2021-09-12 15:27:46.713358 1727
2021-09-12 15:27:46.720346 1744
2021-09-12 15:27:46.726351 1744
2021-09-12 15:27:46.732321 1702
2021-09-12 15:27:46.738335 1686
2021-09-12 15:27:46.745285 1701
2021-09-12 15:27:46.751269 1728
2021-09-12 15:27:46.757252 1749
2021-09-12 15:27:46.764233 1719
2021-09-12 15:27:46.770217 1695
2021-09-12 15:27:46.776201 1703
2021-09-12 15:27:46.782189 1708
2021-09-12 15:27:46.789166 1729
2021-09-12 15:27:46.795150 1733
2021-09-12 15:27:46.801138 1726
2021-09-12 15:27:46.807118 1734
2021-09-12 15:27:46.814101 1727
2021-09-12 15:27:46.820084 1725
2021-09-12 15:27:46.826069 1733
2021-09-12 15:27:46.832051 1719
2021-09-12 15:27:46.839033 1726
2021-09-12 15:27:46.845021 1729
2021-09-12 15:27:46.851004 1715
2021-09-12 15:27:46.856987 1727
2021-09-12 15:27:46.863966 1718
2021-09-12 15:27:46.869955 1694
2021-09-12 15:27:46.875937 1694
2021-09-12 15:27:46.882916 1683
2021-09-12 15:27:46.888900 1712
2021-09-12 15:27:46.894883 1727
2021-09-12 15:27:46.900870 1701
2021-09-12 15:27:46.907849 1686
2021-09-12 15:27:46.913832 1730
2021-09-12 15:27:46.919816 1749
2021-09-12 15:27:46.925806 1761
2021-09-12 15:27:46.932783 1747
2021-09-12 15:27:46.938766 1761
