2021-09-14 15:40:05.201461 2903
2021-09-14 15:40:05.202490 3139
2021-09-14 15:40:05.203462 2331
2021-09-14 15:40:05.204585 2029
2021-09-14 15:40:05.205457 1828
2021-09-14 15:40:05.206447 1901
2021-09-14 15:40:05.207449 1955
2021-09-14 15:40:05.208441 2016
2021-09-14 15:40:05.209439 2058
2021-09-14 15:40:05.210443 2081
2021-09-14 15:40:05.211437 2142
2021-09-14 15:40:05.212431 2135
2021-09-14 15:40:05.213429 2224
2021-09-14 15:40:05.215423 2285
2021-09-14 15:40:05.215423 2336
2021-09-14 15:40:05.217423 2349
2021-09-14 15:40:05.217423 2400
2021-09-14 15:40:05.219412 2417
2021-09-14 15:40:05.220410 2406
2021-09-14 15:40:05.221411 2378
2021-09-14 15:40:05.222404 2357
2021-09-14 15:40:05.223402 2375
2021-09-14 15:40:05.224434 2323
2021-09-14 15:40:05.225396 2352
2021-09-14 15:40:05.227403 2390
2021-09-14 15:40:05.228387 2373
2021-09-14 15:40:05.229390 2432
2021-09-14 15:40:05.230390 2435
2021-09-14 15:40:05.231412 2461
2021-09-14 15:40:05.232385 2487
2021-09-14 15:40:05.233382 2583
2021-09-14 15:40:05.234378 2689
2021-09-14 15:40:05.236369 2733
2021-09-14 15:40:05.237364 2809
2021-09-14 15:40:05.238362 2809
2021-09-14 15:40:05.238362 2813
2021-09-14 15:40:05.240391 2876
2021-09-14 15:40:05.240391 2871
2021-09-14 15:40:05.241353 2913
2021-09-14 15:40:05.241353 2994
2021-09-14 15:40:05.241353 3027
2021-09-14 15:40:05.241353 3113
2021-09-14 15:40:05.242350 3056
2021-09-14 15:40:05.242350 3054
2021-09-14 15:40:05.242350 3127
2021-09-14 15:40:05.242350 3105
2021-09-14 15:40:05.243346 3184
2021-09-14 15:40:05.243346 3227
2021-09-14 15:40:05.243346 3375
2021-09-14 15:40:05.243346 3453
2021-09-14 15:40:05.243346 3439
2021-09-14 15:40:05.244344 3434
2021-09-14 15:40:05.244344 3331
2021-09-14 15:40:05.244344 3235
2021-09-14 15:40:05.244344 3137
2021-09-14 15:40:05.244344 3170
2021-09-14 15:40:05.245341 3210
2021-09-14 15:40:05.245341 3280
2021-09-14 15:40:05.245341 3360
2021-09-14 15:40:05.245341 3525
2021-09-14 15:40:05.245341 3633
2021-09-14 15:40:05.245341 3779
2021-09-14 15:40:05.246338 3569
2021-09-14 15:40:05.246338 3809
2021-09-14 15:40:05.246338 4095
2021-09-14 15:40:05.246338 4095
2021-09-14 15:40:05.247338 4095
2021-09-14 15:40:05.247338 4095
2021-09-14 15:40:05.247338 3537
2021-09-14 15:40:05.247338 3094
2021-09-14 15:40:05.247338 3148
2021-09-14 15:40:05.247338 3089
2021-09-14 15:40:05.248333 3000
2021-09-14 15:40:05.248333 2950
2021-09-14 15:40:05.248333 2951
2021-09-14 15:40:05.248333 2901
2021-09-14 15:40:05.248333 2935
2021-09-14 15:40:05.248333 2905
2021-09-14 15:40:05.249331 2928
2021-09-14 15:40:05.249331 2990
2021-09-14 15:40:05.249331 2971
2021-09-14 15:40:05.249331 3056
2021-09-14 15:40:05.249331 3071
2021-09-14 15:40:05.249331 3132
2021-09-14 15:40:05.250327 3135
2021-09-14 15:40:05.250327 3090
2021-09-14 15:40:05.250327 3157
2021-09-14 15:40:05.250327 3166
2021-09-14 15:40:05.250327 3249
2021-09-14 15:40:05.250327 3282
2021-09-14 15:40:05.250327 3270
2021-09-14 15:40:05.251324 3227
2021-09-14 15:40:05.251324 3127
2021-09-14 15:40:05.251324 3024
2021-09-14 15:40:05.251324 2987
2021-09-14 15:40:05.251324 2880
2021-09-14 15:40:05.251324 2846
2021-09-14 15:40:05.252322 2782
2021-09-14 15:40:05.252322 2714
2021-09-14 15:40:05.252322 2654
2021-09-14 15:40:05.252322 2589
2021-09-14 15:40:05.252322 2538
2021-09-14 15:40:05.253320 2493
2021-09-14 15:40:05.253320 2445
2021-09-14 15:40:05.253320 2405
2021-09-14 15:40:05.253320 2382
2021-09-14 15:40:05.253320 2370
2021-09-14 15:40:05.254322 2279
2021-09-14 15:40:05.254322 2261
2021-09-14 15:40:05.254322 2265
2021-09-14 15:40:05.254322 2311
2021-09-14 15:40:05.255314 2278
2021-09-14 15:40:05.255314 2315
2021-09-14 15:40:05.255314 2307
2021-09-14 15:40:05.255314 2313
2021-09-14 15:40:05.255314 2272
2021-09-14 15:40:05.256311 2192
2021-09-14 15:40:05.256311 2081
2021-09-14 15:40:05.256311 2000
2021-09-14 15:40:05.256311 1987
2021-09-14 15:40:05.256311 2000
2021-09-14 15:40:05.256311 2014
2021-09-14 15:40:05.257308 1999
2021-09-14 15:40:05.257308 2018
2021-09-14 15:40:05.257308 2035
2021-09-14 15:40:05.257308 2032
2021-09-14 15:40:05.257308 1898
2021-09-14 15:40:05.257308 1962
2021-09-14 15:40:05.258306 2032
2021-09-14 15:40:05.258306 3090
2021-09-14 15:40:05.258306 3184
2021-09-14 15:40:05.258306 2113
2021-09-14 15:40:05.258306 1659
2021-09-14 15:40:05.258306 1815
2021-09-14 15:40:05.259304 1899
2021-09-14 15:40:05.259304 1840
2021-09-14 15:40:05.259304 1808
2021-09-14 15:40:05.259304 1722
2021-09-14 15:40:05.259304 1712
2021-09-14 15:40:05.259304 1765
2021-09-14 15:40:05.260301 1719
2021-09-14 15:40:05.260301 1732
2021-09-14 15:40:05.260301 1712
2021-09-14 15:40:05.260301 1734
2021-09-14 15:40:05.261302 1763
2021-09-14 15:40:05.261302 1817
2021-09-14 15:40:05.261302 1888
2021-09-14 15:40:05.261302 1968
2021-09-14 15:40:05.261302 2035
2021-09-14 15:40:05.262295 2103
2021-09-14 15:40:05.262295 2167
2021-09-14 15:40:05.262295 2247
2021-09-14 15:40:05.262295 2274
2021-09-14 15:40:05.262295 2341
2021-09-14 15:40:05.262295 2426
2021-09-14 15:40:05.263293 2447
2021-09-14 15:40:05.263293 2480
2021-09-14 15:40:05.263293 2512
2021-09-14 15:40:05.263293 2585
2021-09-14 15:40:05.263293 2637
2021-09-14 15:40:05.263293 2702
2021-09-14 15:40:05.264290 2827
2021-09-14 15:40:05.264290 3009
2021-09-14 15:40:05.264290 3216
2021-09-14 15:40:05.264290 3366
2021-09-14 15:40:05.264290 3546
2021-09-14 15:40:05.264290 4095
2021-09-14 15:40:05.265288 4095
2021-09-14 15:40:05.265288 4095
2021-09-14 15:40:05.265288 4095
2021-09-14 15:40:05.265288 4095
2021-09-14 15:40:05.265288 4095
2021-09-14 15:40:05.265288 4095
2021-09-14 15:40:05.266285 4095
2021-09-14 15:40:05.266285 4095
2021-09-14 15:40:05.266285 4095
2021-09-14 15:40:05.266285 4095
2021-09-14 15:40:05.266285 4095
2021-09-14 15:40:05.266285 4095
2021-09-14 15:40:05.267283 4095
2021-09-14 15:40:05.267283 4095
2021-09-14 15:40:05.267283 4095
2021-09-14 15:40:05.267283 4095
2021-09-14 15:40:05.267283 4095
2021-09-14 15:40:05.268283 4095
2021-09-14 15:40:05.268283 4095
2021-09-14 15:40:05.268283 3775
2021-09-14 15:40:05.268283 3615
2021-09-14 15:40:05.268283 3487
2021-09-14 15:40:05.269277 3387
2021-09-14 15:40:05.269277 3201
2021-09-14 15:40:05.269277 2981
2021-09-14 15:40:05.269277 3071
2021-09-14 15:40:05.269277 3376
2021-09-14 15:40:05.269277 4095
2021-09-14 15:40:05.269277 4095
2021-09-14 15:40:05.270275 2854
2021-09-14 15:40:05.270275 2358
2021-09-14 15:40:05.270275 2465
2021-09-14 15:40:05.270275 2535
2021-09-14 15:40:05.270275 2513
2021-09-14 15:40:05.270275 2497
2021-09-14 15:40:05.271271 2503
2021-09-14 15:40:05.271271 2503
2021-09-14 15:40:05.271271 2473
2021-09-14 15:40:05.271271 2404
2021-09-14 15:40:05.271271 2402
2021-09-14 15:40:05.271271 2361
2021-09-14 15:40:05.271271 2333
2021-09-14 15:40:05.272269 2350
2021-09-14 15:40:05.272269 2278
2021-09-14 15:40:05.272269 2259
2021-09-14 15:40:05.272269 2203
2021-09-14 15:40:05.272269 2151
2021-09-14 15:40:05.272269 2119
2021-09-14 15:40:05.273265 2082
2021-09-14 15:40:05.273265 2053
2021-09-14 15:40:05.273265 2064
2021-09-14 15:40:05.273265 2040
2021-09-14 15:40:05.273265 2015
2021-09-14 15:40:05.273265 1950
2021-09-14 15:40:05.274274 1925
2021-09-14 15:40:05.274274 1895
2021-09-14 15:40:05.274274 1837
2021-09-14 15:40:05.274274 1843
2021-09-14 15:40:05.274274 1795
2021-09-14 15:40:05.275265 1781
2021-09-14 15:40:05.275265 1762
2021-09-14 15:40:05.275265 1754
2021-09-14 15:40:05.275265 1725
2021-09-14 15:40:05.276259 1701
2021-09-14 15:40:05.276259 1680
2021-09-14 15:40:05.276259 1635
2021-09-14 15:40:05.276259 1622
2021-09-14 15:40:05.276259 1602
2021-09-14 15:40:05.276259 1568
2021-09-14 15:40:05.276259 1555
2021-09-14 15:40:05.277256 1545
2021-09-14 15:40:05.277256 1492
2021-09-14 15:40:05.277256 1507
2021-09-14 15:40:05.277256 1535
2021-09-14 15:40:05.277256 1506
2021-09-14 15:40:05.277256 1506
2021-09-14 15:40:05.277256 1520
2021-09-14 15:40:05.278253 1527
2021-09-14 15:40:05.278253 1515
2021-09-14 15:40:05.278253 1426
2021-09-14 15:40:05.278253 1357
2021-09-14 15:40:05.278253 1280
2021-09-14 15:40:05.278253 1287
2021-09-14 15:40:05.279251 1263
2021-09-14 15:40:05.279251 1249
2021-09-14 15:40:05.279251 1213
2021-09-14 15:40:05.279251 1203
2021-09-14 15:40:05.279251 1199
2021-09-14 15:40:05.279251 1162
2021-09-14 15:40:05.279251 1043
2021-09-14 15:40:05.280247 1109
2021-09-14 15:40:05.280247 1265
2021-09-14 15:40:05.280247 2397
2021-09-14 15:40:05.280247 1963
2021-09-14 15:40:05.280247 944
2021-09-14 15:40:05.280247 752
2021-09-14 15:40:05.281245 1056
2021-09-14 15:40:05.281245 1002
2021-09-14 15:40:05.281245 1018
2021-09-14 15:40:05.281245 1031
2021-09-14 15:40:05.281245 1010
2021-09-14 15:40:05.281245 1019
2021-09-14 15:40:05.282244 1023
2021-09-14 15:40:05.282244 995
2021-09-14 15:40:05.282244 1021
2021-09-14 15:40:05.282244 991
2021-09-14 15:40:05.282244 1013
2021-09-14 15:40:05.282244 1040
2021-09-14 15:40:05.283240 1030
2021-09-14 15:40:05.283240 1019
2021-09-14 15:40:05.283240 1040
2021-09-14 15:40:05.283240 982
2021-09-14 15:40:05.284237 992
2021-09-14 15:40:05.284237 954
2021-09-14 15:40:05.284237 967
2021-09-14 15:40:05.284237 994
2021-09-14 15:40:05.284237 1007
2021-09-14 15:40:05.284237 1004
2021-09-14 15:40:05.285234 981
2021-09-14 15:40:05.285234 989
2021-09-14 15:40:05.285234 976
2021-09-14 15:40:05.285234 954
2021-09-14 15:40:05.285234 986
2021-09-14 15:40:05.285234 970
2021-09-14 15:40:05.285234 995
2021-09-14 15:40:05.285234 979
2021-09-14 15:40:05.286231 982
2021-09-14 15:40:05.286231 978
2021-09-14 15:40:05.286231 994
2021-09-14 15:40:05.286231 1003
2021-09-14 15:40:05.286231 990
2021-09-14 15:40:05.286231 983
2021-09-14 15:40:05.286231 995
2021-09-14 15:40:05.287228 967
2021-09-14 15:40:05.287228 1006
2021-09-14 15:40:05.287228 1021
2021-09-14 15:40:05.287228 996
2021-09-14 15:40:05.287228 1006
2021-09-14 15:40:05.287228 977
2021-09-14 15:40:05.288226 1011
2021-09-14 15:40:05.288226 1076
2021-09-14 15:40:05.288226 1088
2021-09-14 15:40:05.288226 1093
2021-09-14 15:40:05.288226 1150
2021-09-14 15:40:05.288226 1163
2021-09-14 15:40:05.289223 1169
2021-09-14 15:40:05.289223 1126
2021-09-14 15:40:05.289223 1077
2021-09-14 15:40:05.289223 961
2021-09-14 15:40:05.289223 983
2021-09-14 15:40:05.289223 1014
2021-09-14 15:40:05.289223 1023
2021-09-14 15:40:05.290220 1023
2021-09-14 15:40:05.290220 1009
2021-09-14 15:40:05.290220 1037
2021-09-14 15:40:05.290220 1014
2021-09-14 15:40:05.290220 947
2021-09-14 15:40:05.291218 971
2021-09-14 15:40:05.291218 1059
2021-09-14 15:40:05.291218 2119
2021-09-14 15:40:05.291218 2185
2021-09-14 15:40:05.291218 1051
2021-09-14 15:40:05.291218 790
2021-09-14 15:40:05.292216 1041
2021-09-14 15:40:05.292216 1106
2021-09-14 15:40:05.292216 1061
2021-09-14 15:40:05.292216 1111
2021-09-14 15:40:05.292216 1157
2021-09-14 15:40:05.293213 1168
2021-09-14 15:40:05.293213 1194
2021-09-14 15:40:05.293213 1179
2021-09-14 15:40:05.293213 1215
2021-09-14 15:40:05.293213 1236
2021-09-14 15:40:05.294210 1239
2021-09-14 15:40:05.294210 1277
2021-09-14 15:40:05.294210 1285
2021-09-14 15:40:05.294210 1297
2021-09-14 15:40:05.294210 1322
2021-09-14 15:40:05.294210 1296
2021-09-14 15:40:05.295207 1318
2021-09-14 15:40:05.295207 1334
2021-09-14 15:40:05.295207 1338
2021-09-14 15:40:05.295207 1371
2021-09-14 15:40:05.295207 1363
2021-09-14 15:40:05.295207 1399
2021-09-14 15:40:05.296204 1406
2021-09-14 15:40:05.296204 1387
2021-09-14 15:40:05.296204 1407
2021-09-14 15:40:05.296204 1396
2021-09-14 15:40:05.296204 1409
2021-09-14 15:40:05.296204 1410
2021-09-14 15:40:05.296204 1429
2021-09-14 15:40:05.297202 1458
2021-09-14 15:40:05.297202 1421
2021-09-14 15:40:05.297202 1473
2021-09-14 15:40:05.297202 1458
2021-09-14 15:40:05.297202 1471
2021-09-14 15:40:05.297202 1478
2021-09-14 15:40:05.297202 1488
2021-09-14 15:40:05.298199 1490
2021-09-14 15:40:05.298199 1499
2021-09-14 15:40:05.298199 1492
2021-09-14 15:40:05.298199 1507
2021-09-14 15:40:05.298199 1502
2021-09-14 15:40:05.298199 1518
2021-09-14 15:40:05.299197 1513
2021-09-14 15:40:05.299197 1531
2021-09-14 15:40:05.299197 1543
2021-09-14 15:40:05.299197 1563
2021-09-14 15:40:05.299197 1648
2021-09-14 15:40:05.299197 1617
2021-09-14 15:40:05.299197 1680
2021-09-14 15:40:05.300194 1699
2021-09-14 15:40:05.300194 1705
2021-09-14 15:40:05.300194 1743
2021-09-14 15:40:05.300194 1646
2021-09-14 15:40:05.300194 1605
2021-09-14 15:40:05.301191 1567
2021-09-14 15:40:05.301191 1563
2021-09-14 15:40:05.301191 1586
2021-09-14 15:40:05.301191 1589
2021-09-14 15:40:05.301191 1584
2021-09-14 15:40:05.301191 1600
2021-09-14 15:40:05.302190 1607
2021-09-14 15:40:05.302190 1599
2021-09-14 15:40:05.302190 1466
2021-09-14 15:40:05.302190 1586
2021-09-14 15:40:05.302190 1890
2021-09-14 15:40:05.302190 2986
2021-09-14 15:40:05.303186 2233
2021-09-14 15:40:05.303186 1423
2021-09-14 15:40:05.303186 1326
2021-09-14 15:40:05.303186 1615
2021-09-14 15:40:05.303186 1584
2021-09-14 15:40:05.303186 1629
2021-09-14 15:40:05.311167 1641
2021-09-14 15:40:05.321138 1665
2021-09-14 15:40:05.332113 1691
2021-09-14 15:40:05.342084 1680
2021-09-14 15:40:05.351060 1703
2021-09-14 15:40:05.361319 1710
2021-09-14 15:40:05.371256 1722
2021-09-14 15:40:05.381232 1751
2021-09-14 15:40:05.391205 1760
2021-09-14 15:40:05.401181 1797
2021-09-14 15:40:05.411152 1782
2021-09-14 15:40:05.422120 1805
2021-09-14 15:40:05.431099 1820
2021-09-14 15:40:05.442066 1793
2021-09-14 15:40:05.451148 1815
2021-09-14 15:40:05.461121 1817
2021-09-14 15:40:05.471099 1855
2021-09-14 15:40:05.481071 1867
2021-09-14 15:40:05.491046 1840
2021-09-14 15:40:05.501161 1853
2021-09-14 15:40:05.512089 1822
2021-09-14 15:40:05.522064 1821
2021-09-14 15:40:05.532041 1831
2021-09-14 15:40:05.542010 1807
2021-09-14 15:40:05.551983 1830
2021-09-14 15:40:05.561955 1817
2021-09-14 15:40:05.571928 1808
2021-09-14 15:40:05.581903 1858
2021-09-14 15:40:05.591877 1808
2021-09-14 15:40:05.601850 1840
2021-09-14 15:40:05.611822 1799
2021-09-14 15:40:05.621803 1837
2021-09-14 15:40:05.631770 1857
2021-09-14 15:40:05.641750 1819
2021-09-14 15:40:05.651716 1852
2021-09-14 15:40:05.661793 1823
2021-09-14 15:40:05.671669 1814
2021-09-14 15:40:05.681674 1816
2021-09-14 15:40:05.691612 1839
2021-09-14 15:40:05.701582 1862
2021-09-14 15:40:05.711558 1808
2021-09-14 15:40:05.721568 1847
2021-09-14 15:40:05.731503 1906
2021-09-14 15:40:05.741475 1902
2021-09-14 15:40:05.751452 1885
2021-09-14 15:40:05.761429 1946
2021-09-14 15:40:05.771396 1963
2021-09-14 15:40:05.782366 1990
2021-09-14 15:40:05.791343 1962
2021-09-14 15:40:05.802313 1903
2021-09-14 15:40:05.812287 1835
2021-09-14 15:40:05.822260 1787
2021-09-14 15:40:05.831237 1809
2021-09-14 15:40:05.841208 1783
2021-09-14 15:40:05.851184 1807
2021-09-14 15:40:05.861154 1811
2021-09-14 15:40:05.872131 1817
2021-09-14 15:40:05.882098 1818
2021-09-14 15:40:05.892171 1727
2021-09-14 15:40:05.902182 1683
2021-09-14 15:40:05.912117 1774
2021-09-14 15:40:05.921095 2421
2021-09-14 15:40:05.932067 3225
2021-09-14 15:40:05.941040 2096
2021-09-14 15:40:05.951013 1564
2021-09-14 15:40:05.961984 1520
2021-09-14 15:40:05.971956 1744
2021-09-14 15:40:05.980932 1728
2021-09-14 15:40:05.991903 1793
2021-09-14 15:40:06.001876 1787
2021-09-14 15:40:06.011852 1801
2021-09-14 15:40:06.021823 1837
2021-09-14 15:40:06.031796 1818
2021-09-14 15:40:06.041867 1821
2021-09-14 15:40:06.051843 1883
2021-09-14 15:40:06.061813 1873
2021-09-14 15:40:06.071787 1875
2021-09-14 15:40:06.081765 1909
2021-09-14 15:40:06.091733 1916
2021-09-14 15:40:06.101706 1933
2021-09-14 15:40:06.111685 1920
2021-09-14 15:40:06.121653 1910
2021-09-14 15:40:06.131627 1915
2021-09-14 15:40:06.141601 1914
2021-09-14 15:40:06.151609 1951
2021-09-14 15:40:06.161551 1947
2021-09-14 15:40:06.171521 1952
2021-09-14 15:40:06.181659 1954
2021-09-14 15:40:06.191562 1919
2021-09-14 15:40:06.201539 1905
2021-09-14 15:40:06.211514 1895
2021-09-14 15:40:06.221509 1882
2021-09-14 15:40:06.231482 1901
2021-09-14 15:40:06.241431 1878
2021-09-14 15:40:06.251401 1872
2021-09-14 15:40:06.261375 1869
2021-09-14 15:40:06.271348 1905
2021-09-14 15:40:06.281321 1907
2021-09-14 15:40:06.291294 1897
2021-09-14 15:40:06.301269 1889
2021-09-14 15:40:06.311242 1903
2021-09-14 15:40:06.321219 1904
2021-09-14 15:40:06.331188 1887
2021-09-14 15:40:06.341161 1895
2021-09-14 15:40:06.351135 1905
2021-09-14 15:40:06.361144 1879
2021-09-14 15:40:06.372092 1874
2021-09-14 15:40:06.381074 1904
2021-09-14 15:40:06.392043 1904
2021-09-14 15:40:06.402012 1902
2021-09-14 15:40:06.411985 1898
2021-09-14 15:40:06.421959 1907
2021-09-14 15:40:06.431932 1991
2021-09-14 15:40:06.441905 1974
2021-09-14 15:40:06.451944 2027
2021-09-14 15:40:06.462049 2009
2021-09-14 15:40:06.472086 2047
2021-09-14 15:40:06.481066 2042
2021-09-14 15:40:06.491035 1965
2021-09-14 15:40:06.502005 1935
2021-09-14 15:40:06.510991 1825
2021-09-14 15:40:06.521961 1822
2021-09-14 15:40:06.531034 1872
2021-09-14 15:40:06.541056 1840
2021-09-14 15:40:06.552022 1840
2021-09-14 15:40:06.561990 1840
2021-09-14 15:40:06.570966 1832
2021-09-14 15:40:06.581937 1824
2021-09-14 15:40:06.591910 1673
2021-09-14 15:40:06.601883 1808
2021-09-14 15:40:06.611856 2090
2021-09-14 15:40:06.621832 3314
2021-09-14 15:40:06.631803 2555
2021-09-14 15:40:06.641885 1652
2021-09-14 15:40:06.651857 1523
2021-09-14 15:40:06.661849 1794
2021-09-14 15:40:06.671825 1770
2021-09-14 15:40:06.681798 1781
2021-09-14 15:40:06.691773 1802
2021-09-14 15:40:06.701793 1817
2021-09-14 15:40:06.711773 1833
2021-09-14 15:40:06.721751 1839
2021-09-14 15:40:06.731714 1840
2021-09-14 15:40:06.741687 1846
2021-09-14 15:40:06.751757 1865
2021-09-14 15:40:06.761677 1903
2021-09-14 15:40:06.771650 1902
2021-09-14 15:40:06.781624 1934
2021-09-14 15:40:06.791596 1915
2021-09-14 15:40:06.801570 1920
2021-09-14 15:40:06.811549 1934
2021-09-14 15:40:06.821520 1911
2021-09-14 15:40:06.831490 1931
2021-09-14 15:40:06.841468 1938
2021-09-14 15:40:06.851437 1961
2021-09-14 15:40:06.861410 1977
2021-09-14 15:40:06.871385 1974
2021-09-14 15:40:06.881389 1953
2021-09-14 15:40:06.891336 1918
2021-09-14 15:40:06.901305 1920
2021-09-14 15:40:06.911276 1894
2021-09-14 15:40:06.921250 1895
2021-09-14 15:40:06.931223 1890
2021-09-14 15:40:06.941198 1875
2021-09-14 15:40:06.951171 1906
2021-09-14 15:40:06.962145 1904
2021-09-14 15:40:06.972113 1888
2021-09-14 15:40:06.981090 1890
2021-09-14 15:40:06.992063 1887
2021-09-14 15:40:07.001037 1890
2021-09-14 15:40:07.011324 1895
2021-09-14 15:40:07.021266 1904
2021-09-14 15:40:07.031239 1883
2021-09-14 15:40:07.041214 1885
2021-09-14 15:40:07.052183 1885
2021-09-14 15:40:07.061194 1888
2021-09-14 15:40:07.071174 1894
2021-09-14 15:40:07.081146 1893
2021-09-14 15:40:07.091118 1876
2021-09-14 15:40:07.101095 1893
2021-09-14 15:40:07.111096 1898
2021-09-14 15:40:07.121166 1949
2021-09-14 15:40:07.131291 1959
2021-09-14 15:40:07.141199 1983
2021-09-14 15:40:07.151169 2013
2021-09-14 15:40:07.161145 2002
2021-09-14 15:40:07.171115 2026
2021-09-14 15:40:07.181253 1981
2021-09-14 15:40:07.191156 1901
2021-09-14 15:40:07.202128 1806
2021-09-14 15:40:07.212102 1822
2021-09-14 15:40:07.222115 1819
2021-09-14 15:40:07.232049 1828
2021-09-14 15:40:07.242026 1808
2021-09-14 15:40:07.251995 1834
2021-09-14 15:40:07.261972 1837
2021-09-14 15:40:07.271952 1808
2021-09-14 15:40:07.281915 1703
2021-09-14 15:40:07.291893 1755
2021-09-14 15:40:07.301863 1910
2021-09-14 15:40:07.311835 3014
2021-09-14 15:40:07.321809 2790
2021-09-14 15:40:07.331782 1798
2021-09-14 15:40:07.341754 1453
2021-09-14 15:40:07.351729 1739
2021-09-14 15:40:07.361703 1783
2021-09-14 15:40:07.371675 1766
2021-09-14 15:40:07.381649 1822
2021-09-14 15:40:07.391622 1811
2021-09-14 15:40:07.402592 1843
2021-09-14 15:40:07.411568 1839
2021-09-14 15:40:07.421575 1840
2021-09-14 15:40:07.431515 1867
2021-09-14 15:40:07.441497 1879
2021-09-14 15:40:07.451466 1909
2021-09-14 15:40:07.461439 1931
2021-09-14 15:40:07.471409 1920
2021-09-14 15:40:07.481386 1930
2021-09-14 15:40:07.492353 1915
2021-09-14 15:40:07.502330 1970
2021-09-14 15:40:07.512298 1927
2021-09-14 15:40:07.522272 1927
2021-09-14 15:40:07.532246 1956
2021-09-14 15:40:07.542280 1981
2021-09-14 15:40:07.551195 1990
2021-09-14 15:40:07.562208 1981
2021-09-14 15:40:07.572147 1943
2021-09-14 15:40:07.582166 1946
2021-09-14 15:40:07.592089 1934
2021-09-14 15:40:07.602069 1926
2021-09-14 15:40:07.612066 1918
2021-09-14 15:40:07.622008 1902
2021-09-14 15:40:07.631983 1915
2021-09-14 15:40:07.641952 1915
2021-09-14 15:40:07.651927 1908
2021-09-14 15:40:07.661945 1904
2021-09-14 15:40:07.671905 1910
2021-09-14 15:40:07.681849 1911
2021-09-14 15:40:07.691818 1905
2021-09-14 15:40:07.701793 1906
2021-09-14 15:40:07.711765 1901
2021-09-14 15:40:07.721739 1893
2021-09-14 15:40:07.731712 1904
2021-09-14 15:40:07.741719 1859
2021-09-14 15:40:07.751659 1904
2021-09-14 15:40:07.761633 1904
2021-09-14 15:40:07.771606 1893
2021-09-14 15:40:07.781587 1907
2021-09-14 15:40:07.791594 1961
2021-09-14 15:40:07.801534 1943
2021-09-14 15:40:07.811501 1981
2021-09-14 15:40:07.821471 1984
2021-09-14 15:40:07.831454 1989
2021-09-14 15:40:07.841418 2023
2021-09-14 15:40:07.851399 1963
2021-09-14 15:40:07.862362 1914
2021-09-14 15:40:07.871342 1840
2021-09-14 15:40:07.882309 1826
2021-09-14 15:40:07.892285 1808
2021-09-14 15:40:07.902256 1816
2021-09-14 15:40:07.912230 1822
2021-09-14 15:40:07.921206 1810
2021-09-14 15:40:07.932176 1822
2021-09-14 15:40:07.942150 1802
2021-09-14 15:40:07.952130 1680
2021-09-14 15:40:07.962096 1744
2021-09-14 15:40:07.972069 1872
2021-09-14 15:40:07.982043 2899
2021-09-14 15:40:07.992023 2789
2021-09-14 15:40:08.002032 1776
2021-09-14 15:40:08.011965 1467
2021-09-14 15:40:08.021942 1628
2021-09-14 15:40:08.031910 1747
2021-09-14 15:40:08.041882 1718
2021-09-14 15:40:08.051856 1789
2021-09-14 15:40:08.061829 1793
2021-09-14 15:40:08.071832 1795
2021-09-14 15:40:08.081779 1815
2021-09-14 15:40:08.091749 1797
2021-09-14 15:40:08.101732 1858
2021-09-14 15:40:08.111705 1854
2021-09-14 15:40:08.121670 1870
2021-09-14 15:40:08.131642 1901
2021-09-14 15:40:08.141615 1883
2021-09-14 15:40:08.151607 1917
2021-09-14 15:40:08.161565 1915
2021-09-14 15:40:08.171543 1885
2021-09-14 15:40:08.181513 1904
2021-09-14 15:40:08.191482 1904
2021-09-14 15:40:08.202453 1908
2021-09-14 15:40:08.211436 1927
2021-09-14 15:40:08.222402 1957
2021-09-14 15:40:08.231375 1943
2021-09-14 15:40:08.242349 1907
2021-09-14 15:40:08.251362 1901
2021-09-14 15:40:08.262296 1885
2021-09-14 15:40:08.272267 1872
2021-09-14 15:40:08.282241 1888
2021-09-14 15:40:08.292215 1859
2021-09-14 15:40:08.302200 1878
2021-09-14 15:40:08.312194 1891
2021-09-14 15:40:08.322141 1872
2021-09-14 15:40:08.332141 1893
2021-09-14 15:40:08.342080 1872
2021-09-14 15:40:08.352062 1862
2021-09-14 15:40:08.362053 1874
2021-09-14 15:40:08.372000 1863
2021-09-14 15:40:08.381973 1856
2021-09-14 15:40:08.391947 1856
2021-09-14 15:40:08.401922 1863
2021-09-14 15:40:08.411926 1838
2021-09-14 15:40:08.421867 1857
2021-09-14 15:40:08.431839 1865
2021-09-14 15:40:08.441820 1858
2021-09-14 15:40:08.451787 1859
2021-09-14 15:40:08.461761 1935
2021-09-14 15:40:08.471739 1909
2021-09-14 15:40:08.481727 1990
2021-09-14 15:40:08.491679 1973
2021-09-14 15:40:08.501653 2000
2021-09-14 15:40:08.511625 2000
2021-09-14 15:40:08.521600 1904
2021-09-14 15:40:08.531571 1872
2021-09-14 15:40:08.541546 1779
2021-09-14 15:40:08.551527 1808
2021-09-14 15:40:08.561497 1815
2021-09-14 15:40:08.571466 1782
2021-09-14 15:40:08.581440 1806
2021-09-14 15:40:08.591412 1809
2021-09-14 15:40:08.601390 1792
2021-09-14 15:40:08.611360 1777
2021-09-14 15:40:08.621334 1645
2021-09-14 15:40:08.632303 1763
2021-09-14 15:40:08.642279 2026
2021-09-14 15:40:08.652250 3235
2021-09-14 15:40:08.661227 2486
2021-09-14 15:40:08.672206 1617
2021-09-14 15:40:08.681173 1469
2021-09-14 15:40:08.692180 1746
2021-09-14 15:40:08.702117 1731
2021-09-14 15:40:08.712090 1744
2021-09-14 15:40:08.722096 1790
2021-09-14 15:40:08.732036 1802
2021-09-14 15:40:08.742013 1792
2021-09-14 15:40:08.751989 1815
2021-09-14 15:40:08.761957 1813
2021-09-14 15:40:08.771956 1835
2021-09-14 15:40:08.781904 1855
2021-09-14 15:40:08.791881 1861
2021-09-14 15:40:08.801857 1893
2021-09-14 15:40:08.811831 1900
2021-09-14 15:40:08.821796 1889
2021-09-14 15:40:08.831772 1906
2021-09-14 15:40:08.841751 1884
2021-09-14 15:40:08.851720 1918
2021-09-14 15:40:08.861689 1881
2021-09-14 15:40:08.871663 1912
2021-09-14 15:40:08.881637 1942
2021-09-14 15:40:08.891618 1946
2021-09-14 15:40:08.901583 1923
2021-09-14 15:40:08.911556 1905
2021-09-14 15:40:08.921537 1901
2021-09-14 15:40:08.931538 1883
2021-09-14 15:40:08.941479 1871
2021-09-14 15:40:08.951452 1887
2021-09-14 15:40:08.961422 1891
2021-09-14 15:40:08.972395 1872
2021-09-14 15:40:08.981370 1897
2021-09-14 15:40:08.991343 1874
2021-09-14 15:40:09.001316 1898
2021-09-14 15:40:09.011289 1889
2021-09-14 15:40:09.022266 1872
2021-09-14 15:40:09.031235 1894
2021-09-14 15:40:09.041254 1885
2021-09-14 15:40:09.052192 1874
2021-09-14 15:40:09.062154 1872
2021-09-14 15:40:09.072127 1880
2021-09-14 15:40:09.082134 1863
2021-09-14 15:40:09.092076 1854
2021-09-14 15:40:09.101047 1878
2021-09-14 15:40:09.111020 1856
2021-09-14 15:40:09.120994 1930
2021-09-14 15:40:09.130971 1959
2021-09-14 15:40:09.140945 1929
2021-09-14 15:40:09.150914 2001
2021-09-14 15:40:09.160892 1997
2021-09-14 15:40:09.170861 2009
2021-09-14 15:40:09.181831 1984
2021-09-14 15:40:09.191806 1907
2021-09-14 15:40:09.200780 1827
2021-09-14 15:40:09.211750 1791
2021-09-14 15:40:09.221725 1819
2021-09-14 15:40:09.231707 1806
2021-09-14 15:40:09.241683 1776
2021-09-14 15:40:09.251656 1795
2021-09-14 15:40:09.261734 1808
2021-09-14 15:40:09.271706 1797
2021-09-14 15:40:09.281680 1697
2021-09-14 15:40:09.291652 1696
2021-09-14 15:40:09.301752 1820
2021-09-14 15:40:09.311724 2768
2021-09-14 15:40:09.320700 3024
2021-09-14 15:40:09.330676 1855
2021-09-14 15:40:09.340647 1445
2021-09-14 15:40:09.351619 1680
2021-09-14 15:40:09.361591 1749
2021-09-14 15:40:09.371565 1738
2021-09-14 15:40:09.381560 1765
2021-09-14 15:40:09.391511 1757
2021-09-14 15:40:09.401484 1798
2021-09-14 15:40:09.411462 1812
2021-09-14 15:40:09.421443 1815
2021-09-14 15:40:09.431409 1835
2021-09-14 15:40:09.441377 1840
2021-09-14 15:40:09.451356 1861
2021-09-14 15:40:09.461324 1875
2021-09-14 15:40:09.471298 1882
2021-09-14 15:40:09.481304 1877
2021-09-14 15:40:09.491307 1900
2021-09-14 15:40:09.501388 1904
2021-09-14 15:40:09.511221 1901
2021-09-14 15:40:09.521199 1890
2021-09-14 15:40:09.531169 1905
2021-09-14 15:40:09.541305 1920
2021-09-14 15:40:09.551248 1942
2021-09-14 15:40:09.561238 1921
2021-09-14 15:40:09.571217 1917
2021-09-14 15:40:09.581191 1897
2021-09-14 15:40:09.591303 1883
2021-09-14 15:40:09.601234 1873
2021-09-14 15:40:09.611206 1872
2021-09-14 15:40:09.621180 1861
2021-09-14 15:40:09.631189 1872
2021-09-14 15:40:09.641161 1869
2021-09-14 15:40:09.651234 1873
2021-09-14 15:40:09.661214 1872
2021-09-14 15:40:09.671184 1874
2021-09-14 15:40:09.681161 1888
2021-09-14 15:40:09.691130 1872
2021-09-14 15:40:09.701108 1870
2021-09-14 15:40:09.711076 1870
2021-09-14 15:40:09.721134 1865
2021-09-14 15:40:09.731211 1878
2021-09-14 15:40:09.741179 1871
2021-09-14 15:40:09.751156 1887
2021-09-14 15:40:09.761126 1873
2021-09-14 15:40:09.771118 1899
2021-09-14 15:40:09.781072 1955
2021-09-14 15:40:09.791050 1913
2021-09-14 15:40:09.801148 1983
2021-09-14 15:40:09.811160 1974
2021-09-14 15:40:09.821067 2000
2021-09-14 15:40:09.831066 1997
2021-09-14 15:40:09.841041 1903
2021-09-14 15:40:09.851121 1843
2021-09-14 15:40:09.861099 1776
2021-09-14 15:40:09.871068 1808
2021-09-14 15:40:09.881141 1793
2021-09-14 15:40:09.891271 1786
2021-09-14 15:40:09.901196 1810
2021-09-14 15:40:09.911173 1796
2021-09-14 15:40:09.921143 1799
2021-09-14 15:40:09.931209 1749
2021-09-14 15:40:09.941186 1668
2021-09-14 15:40:09.951243 1795
2021-09-14 15:40:09.961217 2282
2021-09-14 15:40:09.971194 3170
2021-09-14 15:40:09.981167 2149
2021-09-14 15:40:09.991136 1551
2021-09-14 15:40:10.002107 1505
2021-09-14 15:40:10.011134 1756
2021-09-14 15:40:10.021107 1737
2021-09-14 15:40:10.031176 1775
2021-09-14 15:40:10.041153 1763
2021-09-14 15:40:10.051122 1802
2021-09-14 15:40:10.061095 1827
2021-09-14 15:40:10.071072 1823
2021-09-14 15:40:10.081043 1840
2021-09-14 15:40:10.091162 1847
2021-09-14 15:40:10.101090 1894
2021-09-14 15:40:10.111552 1905
2021-09-14 15:40:10.121525 1913
2021-09-14 15:40:10.131596 1950
2021-09-14 15:40:10.141569 1937
2021-09-14 15:40:10.151542 1943
2021-09-14 15:40:10.161515 1931
2021-09-14 15:40:10.171490 1936
2021-09-14 15:40:10.181527 1950
2021-09-14 15:40:10.191500 1953
2021-09-14 15:40:10.201497 1989
2021-09-14 15:40:10.211446 1961
2021-09-14 15:40:10.221425 1948
2021-09-14 15:40:10.231397 1956
2021-09-14 15:40:10.241367 1918
2021-09-14 15:40:10.251450 1907
2021-09-14 15:40:10.261409 1894
2021-09-14 15:40:10.271386 1902
2021-09-14 15:40:10.281354 1873
2021-09-14 15:40:10.291354 1899
2021-09-14 15:40:10.301299 1904
2021-09-14 15:40:10.311274 1901
2021-09-14 15:40:10.321246 1907
2021-09-14 15:40:10.331249 1903
2021-09-14 15:40:10.341220 1881
2021-09-14 15:40:10.351194 1905
2021-09-14 15:40:10.361139 1887
2021-09-14 15:40:10.371113 1901
2021-09-14 15:40:10.381120 1909
2021-09-14 15:40:10.391060 1883
2021-09-14 15:40:10.401127 1904
2021-09-14 15:40:10.411105 1920
2021-09-14 15:40:10.421127 1951
2021-09-14 15:40:10.431104 1959
2021-09-14 15:40:10.441074 1983
2021-09-14 15:40:10.451183 2018
2021-09-14 15:40:10.461111 2032
2021-09-14 15:40:10.471089 1985
2021-09-14 15:40:10.481062 1920
2021-09-14 15:40:10.491037 1866
2021-09-14 15:40:10.501008 1835
2021-09-14 15:40:10.510978 1815
2021-09-14 15:40:10.520951 1829
2021-09-14 15:40:10.530925 1827
2021-09-14 15:40:10.540899 1821
2021-09-14 15:40:10.550871 1808
2021-09-14 15:40:10.561842 1829
2021-09-14 15:40:10.570819 1769
2021-09-14 15:40:10.581792 1693
2021-09-14 15:40:10.590765 1808
2021-09-14 15:40:10.601736 2395
2021-09-14 15:40:10.610750 3174
2021-09-14 15:40:10.620725 2115
2021-09-14 15:40:10.631697 1601
2021-09-14 15:40:10.641670 1488
2021-09-14 15:40:10.651644 1761
2021-09-14 15:40:10.661648 1725
2021-09-14 15:40:10.671622 1775
2021-09-14 15:40:10.681594 1815
2021-09-14 15:40:10.691570 1818
2021-09-14 15:40:10.701541 1826
2021-09-14 15:40:10.711515 1811
2021-09-14 15:40:10.721504 1843
2021-09-14 15:40:10.731470 1840
2021-09-14 15:40:10.741450 1861
2021-09-14 15:40:10.751412 1893
2021-09-14 15:40:10.761381 1890
2021-09-14 15:40:10.771360 1913
2021-09-14 15:40:10.781328 1917
2021-09-14 15:40:10.791338 1919
2021-09-14 15:40:10.801318 1915
2021-09-14 15:40:10.811295 1909
2021-09-14 15:40:10.821368 1911
2021-09-14 15:40:10.831298 1962
2021-09-14 15:40:10.841274 1938
2021-09-14 15:40:10.851343 1963
2021-09-14 15:40:10.861381 1936
2021-09-14 15:40:10.871294 1902
2021-09-14 15:40:10.881354 1881
2021-09-14 15:40:10.891332 1886
2021-09-14 15:40:10.901306 1883
2021-09-14 15:40:10.911278 1872
2021-09-14 15:40:10.921248 1864
2021-09-14 15:40:10.931225 1907
2021-09-14 15:40:10.941300 1872
2021-09-14 15:40:10.951278 1895
2021-09-14 15:40:10.961247 1875
2021-09-14 15:40:10.971220 1872
2021-09-14 15:40:10.981291 1907
2021-09-14 15:40:10.991281 1873
2021-09-14 15:40:11.001254 1873
2021-09-14 15:40:11.011228 1862
2021-09-14 15:40:11.021201 1886
2021-09-14 15:40:11.031175 1872
2021-09-14 15:40:11.041152 1857
2021-09-14 15:40:11.051155 1878
2021-09-14 15:40:11.061134 1936
2021-09-14 15:40:11.071106 1905
2021-09-14 15:40:11.081076 1979
2021-09-14 15:40:11.091155 1957
2021-09-14 15:40:11.101123 1998
2021-09-14 15:40:11.111102 2005
2021-09-14 15:40:11.121071 1922
2021-09-14 15:40:11.131044 1877
2021-09-14 15:40:11.141021 1787
2021-09-14 15:40:11.151028 1807
2021-09-14 15:40:11.161047 1779
2021-09-14 15:40:11.170978 1782
2021-09-14 15:40:11.180950 1814
2021-09-14 15:40:11.190925 1781
2021-09-14 15:40:11.200897 1819
